0.001	-309
0.002	-303
0.003	-299
0.004	-298
0.005	-297
0.006	-296
0.007	-299
0.008	-302
0.009	-306
0.01	-310
0.011	-316
0.012	-321
0.013	-326
0.014	-321
0.015	-315
0.016	-310
0.017	-307
0.018	-307
0.019	-307
0.02	-308
0.021	-309
0.022	-310
0.023	-311
0.024	-318
0.025	-327
0.026	-336
0.027	-342
0.028	-342
0.029	-342
0.03	-342
0.031	-339
0.032	-336
0.033	-333
0.034	-329
0.035	-326
0.036	-323
0.037	-319
0.038	-320
0.039	-321
0.04	-322
0.041	-326
0.042	-331
0.043	-337
0.044	-342
0.045	-343
0.046	-345
0.047	-346
0.048	-344
0.049	-341
0.05	-337
0.051	-334
0.052	-329
0.053	-325
0.054	-320
0.055	-321
0.056	-325
0.057	-328
0.058	-333
0.059	-342
0.06	-351
0.061	-360
0.062	-363
0.063	-366
0.064	-368
0.065	-365
0.066	-354
0.067	-343
0.068	-332
0.069	-330
0.07	-329
0.071	-327
0.072	-325
0.073	-320
0.074	-316
0.075	-311
0.076	-311
0.077	-311
0.078	-311
0.079	-311
0.08	-310
0.081	-308
0.082	-306
0.083	-299
0.084	-291
0.085	-283
0.086	-281
0.087	-282
0.088	-283
0.089	-285
0.09	-288
0.091	-292
0.092	-295
0.093	-297
0.094	-298
0.095	-299
0.096	-299
0.097	-298
0.098	-297
0.099	-296
0.1	-291
0.101	-285
0.102	-280
0.103	-275
0.104	-272
0.105	-268
0.106	-265
0.107	-267
0.108	-269
0.109	-272
0.11	-274
0.111	-278
0.112	-281
0.113	-284
0.114	-284
0.115	-284
0.116	-284
0.117	-283
0.118	-281
0.119	-278
0.12	-275
0.121	-268
0.122	-262
0.123	-255
0.124	-256
0.125	-259
0.126	-263
0.127	-266
0.128	-271
0.129	-275
0.13	-280
0.131	-280
0.132	-280
0.133	-280
0.134	-278
0.135	-271
0.136	-264
0.137	-257
0.138	-256
0.139	-255
0.14	-254
0.141	-257
0.142	-264
0.143	-270
0.144	-276
0.145	-274
0.146	-272
0.147	-270
0.148	-269
0.149	-269
0.15	-269
0.151	-267
0.152	-258
0.153	-249
0.154	-240
0.155	-234
0.156	-228
0.157	-222
0.158	-218
0.159	-218
0.16	-218
0.161	-218
0.162	-222
0.163	-227
0.164	-231
0.165	-240
0.166	-256
0.167	-272
0.168	-287
0.169	-308
0.17	-330
0.171	-351
0.172	-372
0.173	-394
0.174	-415
0.175	-437
0.176	-475
0.177	-513
0.178	-550
0.179	-593
0.18	-638
0.181	-681
0.182	-716
0.183	-730
0.184	-744
0.185	-757
0.186	-731
0.187	-683
0.188	-629
0.189	-571
0.19	-510
0.191	-448
0.192	-386
0.193	-323
0.194	-261
0.195	-198
0.196	-136
0.197	-73
0.198	-14
0.199	0
0.2	0
0.201	0
0.202	0
0.203	0
0.204	0
0.205	0
0.206	0
0.207	0
0.208	0
0.209	0
0.21	0
0.211	0
0.212	0
0.213	0
0.214	0
0.215	0
0.216	0
0.217	0
0.218	-219
0.219	-265
0.22	-265
0.221	-265
0.222	-261
0.223	-252
0.224	-243
0.225	-234
0.226	-229
0.227	-225
0.228	-220
0.229	-222
0.23	-227
0.231	-233
0.232	-238
0.233	-244
0.234	-250
0.235	-255
0.236	-256
0.237	-255
0.238	-254
0.239	-252
0.24	-249
0.241	-246
0.242	-242
0.243	-237
0.244	-232
0.245	-226
0.246	-223
0.247	-225
0.248	-228
0.249	-230
0.25	-234
0.251	-239
0.252	-243
0.253	-245
0.254	-244
0.255	-243
0.256	-242
0.257	-239
0.258	-237
0.259	-235
0.26	-233
0.261	-232
0.262	-231
0.263	-231
0.264	-236
0.265	-242
0.266	-248
0.267	-251
0.268	-253
0.269	-255
0.27	-257
0.271	-257
0.272	-257
0.273	-257
0.274	-253
0.275	-247
0.276	-242
0.277	-237
0.278	-236
0.279	-235
0.28	-234
0.281	-240
0.282	-247
0.283	-253
0.284	-258
0.285	-259
0.286	-260
0.287	-261
0.288	-257
0.289	-252
0.29	-248
0.291	-245
0.292	-244
0.293	-243
0.294	-242
0.295	-242
0.296	-242
0.297	-242
0.298	-244
0.299	-247
0.3	-251
0.301	-254
0.302	-259
0.303	-263
0.304	-268
0.305	-270
0.306	-273
0.307	-275
0.308	-276
0.309	-274
0.31	-271
0.311	-269
0.312	-267
0.313	-265
0.314	-262
0.315	-262
0.316	-264
0.317	-266
0.318	-269
0.319	-272
0.32	-275
0.321	-279
0.322	-282
0.323	-284
0.324	-286
0.325	-288
0.326	-289
0.327	-290
0.328	-292
0.329	-291
0.33	-290
0.331	-289
0.332	-289
0.333	-296
0.334	-303
0.335	-310
0.336	-313
0.337	-315
0.338	-317
0.339	-320
0.34	-322
0.341	-324
0.342	-326
0.343	-326
0.344	-325
0.345	-324
0.346	-322
0.347	-320
0.348	-318
0.349	-315
0.35	-322
0.351	-328
0.352	-335
0.353	-341
0.354	-347
0.355	-352
0.356	-358
0.357	-357
0.358	-355
0.359	-354
0.36	-356
0.361	-359
0.362	-363
0.363	-365
0.364	-364
0.365	-363
0.366	-362
0.367	-368
0.368	-377
0.369	-386
0.37	-393
0.371	-395
0.372	-398
0.373	-400
0.374	-397
0.375	-394
0.376	-391
0.377	-387
0.378	-384
0.379	-381
0.38	-377
0.381	-377
0.382	-377
0.383	-377
0.384	-379
0.385	-384
0.386	-388
0.387	-393
0.388	-394
0.389	-395
0.39	-396
0.391	-392
0.392	-384
0.393	-376
0.394	-368
0.395	-360
0.396	-353
0.397	-345
0.398	-341
0.399	-338
0.4	-336
0.401	-334
0.402	-332
0.403	-329
0.404	-327
0.405	-329
0.406	-333
0.407	-336
0.408	-336
0.409	-328
0.41	-320
0.411	-312
0.412	-306
0.413	-301
0.414	-295
0.415	-288
0.416	-279
0.417	-270
0.418	-261
0.419	-260
0.42	-259
0.421	-258
0.422	-256
0.423	-255
0.424	-254
0.425	-253
0.426	-247
0.427	-241
0.428	-236
0.429	-231
0.43	-226
0.431	-222
0.432	-218
0.433	-217
0.434	-216
0.435	-215
0.436	-220
0.437	-227
0.438	-233
0.439	-237
0.44	-236
0.441	-235
0.442	-234
0.443	-229
0.444	-223
0.445	-218
0.446	-212
0.447	-206
0.448	-201
0.449	-195
0.45	-195
0.451	-195
0.452	-195
0.453	-196
0.454	-199
0.455	-201
0.456	-203
0.457	-205
0.458	-208
0.459	-210
0.46	-208
0.461	-205
0.462	-202
0.463	-199
0.464	-196
0.465	-194
0.466	-192
0.467	-194
0.468	-197
0.469	-201
0.47	-204
0.471	-206
0.472	-208
0.473	-210
0.474	-212
0.475	-213
0.476	-214
0.477	-213
0.478	-208
0.479	-204
0.48	-199
0.481	-198
0.482	-197
0.483	-196
0.484	-195
0.485	-195
0.486	-195
0.487	-195
0.488	-199
0.489	-202
0.49	-206
0.491	-208
0.492	-210
0.493	-213
0.494	-214
0.495	-209
0.496	-205
0.497	-200
0.498	-197
0.499	-195
0.5	-193
0.501	-192
0.502	-196
0.503	-199
0.504	-202
0.505	-204
0.506	-205
0.507	-206
0.508	-207
0.509	-207
0.51	-207
0.511	-207
0.512	-204
0.513	-200
0.514	-197
0.515	-195
0.516	-194
0.517	-192
0.518	-192
0.519	-198
0.52	-205
0.521	-212
0.522	-215
0.523	-216
0.524	-217
0.525	-219
0.526	-221
0.527	-223
0.528	-226
0.529	-223
0.53	-218
0.531	-214
0.532	-210
0.533	-206
0.534	-203
0.535	-200
0.536	-200
0.537	-201
0.538	-202
0.539	-205
0.54	-211
0.541	-216
0.542	-222
0.543	-224
0.544	-227
0.545	-229
0.546	-229
0.547	-227
0.548	-224
0.549	-222
0.55	-219
0.551	-215
0.552	-212
0.553	-211
0.554	-212
0.555	-214
0.556	-215
0.557	-216
0.558	-217
0.559	-218
0.56	-220
0.561	-222
0.562	-224
0.563	-226
0.564	-225
0.565	-224
0.566	-223
0.567	-219
0.568	-214
0.569	-210
0.57	-206
0.571	-205
0.572	-204
0.573	-203
0.574	-207
0.575	-212
0.576	-216
0.577	-220
0.578	-223
0.579	-227
0.58	-230
0.581	-225
0.582	-221
0.583	-216
0.584	-212
0.585	-208
0.586	-203
0.587	-199
0.588	-202
0.589	-204
0.59	-206
0.591	-208
0.592	-211
0.593	-213
0.594	-215
0.595	-216
0.596	-217
0.597	-218
0.598	-215
0.599	-210
0.6	-206
0.601	-203
0.602	-201
0.603	-200
0.604	-199
0.605	-201
0.606	-203
0.607	-206
0.608	-207
0.609	-208
0.61	-210
0.611	-211
0.612	-214
0.613	-217
0.614	-221
0.615	-219
0.616	-212
0.617	-205
0.618	-199
0.619	-197
0.62	-194
0.621	-192
0.622	-192
0.623	-193
0.624	-194
0.625	-196
0.626	-199
0.627	-203
0.628	-206
0.629	-210
0.63	-215
0.631	-219
0.632	-221
0.633	-215
0.634	-209
0.635	-204
0.636	-198
0.637	-192
0.638	-187
0.639	-185
0.64	-190
0.641	-194
0.642	-199
0.643	-202
0.644	-206
0.645	-209
0.646	-211
0.647	-211
0.648	-211
0.649	-210
0.65	-206
0.651	-201
0.652	-197
0.653	-196
0.654	-197
0.655	-198
0.656	-200
0.657	-203
0.658	-206
0.659	-210
0.66	-216
0.661	-222
0.662	-229
0.663	-233
0.664	-228
0.665	-224
0.666	-219
0.667	-217
0.668	-216
0.669	-215
0.67	-214
0.671	-211
0.672	-209
0.673	-207
0.674	-210
0.675	-213
0.676	-217
0.677	-220
0.678	-224
0.679	-227
0.68	-230
0.681	-231
0.682	-232
0.683	-233
0.684	-233
0.685	-230
0.686	-228
0.687	-226
0.688	-224
0.689	-221
0.69	-219
0.691	-221
0.692	-224
0.693	-228
0.694	-232
0.695	-237
0.696	-243
0.697	-248
0.698	-249
0.699	-249
0.7	-249
0.701	-249
0.702	-246
0.703	-244
0.704	-242
0.705	-241
0.706	-239
0.707	-238
0.708	-238
0.709	-238
0.71	-238
0.711	-238
0.712	-242
0.713	-247
0.714	-251
0.715	-253
0.716	-253
0.717	-253
0.718	-252
0.719	-242
0.72	-232
0.721	-221
0.722	-214
0.723	-207
0.724	-200
0.725	-196
0.726	-198
0.727	-200
0.728	-203
0.729	-203
0.73	-203
0.731	-203
0.732	-204
0.733	-206
0.734	-208
0.735	-210
0.736	-206
0.737	-200
0.738	-194
0.739	-189
0.74	-185
0.741	-180
0.742	-176
0.743	-182
0.744	-187
0.745	-193
0.746	-196
0.747	-197
0.748	-198
0.749	-199
0.75	-198
0.751	-197
0.752	-196
0.753	-194
0.754	-193
0.755	-192
0.756	-191
0.757	-190
0.758	-189
0.759	-188
0.76	-187
0.761	-187
0.762	-187
0.763	-187
0.764	-187
0.765	-187
0.766	-187
0.767	-187
0.768	-187
0.769	-187
0.77	-185
0.771	-181
0.772	-176
0.773	-172
0.774	-169
0.775	-165
0.776	-162
0.777	-163
0.778	-167
0.779	-172
0.78	-177
0.781	-185
0.782	-192
0.783	-200
0.784	-201
0.785	-199
0.786	-197
0.787	-194
0.788	-187
0.789	-180
0.79	-174
0.791	-169
0.792	-166
0.793	-163
0.794	-162
0.795	-166
0.796	-171
0.797	-175
0.798	-178
0.799	-180
0.8	-182
0.801	-181
0.802	-176
0.803	-170
0.804	-164
0.805	-160
0.806	-155
0.807	-151
0.808	-144
0.809	-135
0.81	-126
0.811	-119
0.812	-130
0.813	-141
0.814	-152
0.815	-174
0.816	-203
0.817	-231
0.818	-258
0.819	-281
0.82	-305
0.821	-329
0.822	-351
0.823	-374
0.824	-396
0.825	-423
0.826	-460
0.827	-496
0.828	-533
0.829	-584
0.83	-636
0.831	-684
0.832	-712
0.833	-715
0.834	-718
0.835	-722
0.836	-705
0.837	-686
0.838	-666
0.839	-640
0.84	-606
0.841	-571
0.842	-535
0.843	-492
0.844	-449
0.845	-405
0.846	-357
0.847	-307
0.848	-256
0.849	-210
0.85	-182
0.851	-153
0.852	-125
0.853	-123
0.854	-129
0.855	-136
0.856	-142
0.857	-145
0.858	-149
0.859	-152
0.86	-164
0.861	-177
0.862	-191
0.863	-201
0.864	-205
0.865	-210
0.866	-214
0.867	-211
0.868	-208
0.869	-205
0.87	-203
0.871	-205
0.872	-206
0.873	-206
0.874	-200
0.875	-193
0.876	-186
0.877	-183
0.878	-182
0.879	-181
0.88	-180
0.881	-184
0.882	-187
0.883	-190
0.884	-196
0.885	-203
0.886	-210
0.887	-214
0.888	-210
0.889	-207
0.89	-204
0.891	-200
0.892	-197
0.893	-193
0.894	-191
0.895	-191
0.896	-191
0.897	-191
0.898	-196
0.899	-202
0.9	-208
0.901	-213
0.902	-219
0.903	-225
0.904	-230
0.905	-222
0.906	-214
0.907	-206
0.908	-202
0.909	-199
0.91	-197
0.911	-195
0.912	-195
0.913	-195
0.914	-195
0.915	-200
0.916	-207
0.917	-213
0.918	-219
0.919	-223
0.92	-226
0.921	-229
0.922	-228
0.923	-226
0.924	-224
0.925	-222
0.926	-221
0.927	-220
0.928	-219
0.929	-220
0.93	-223
0.931	-225
0.932	-230
0.933	-238
0.934	-245
0.935	-253
0.936	-254
0.937	-256
0.938	-257
0.939	-255
0.94	-250
0.941	-246
0.942	-241
0.943	-238
0.944	-235
0.945	-231
0.946	-233
0.947	-238
0.948	-242
0.949	-246
0.95	-250
0.951	-253
0.952	-256
0.953	-263
0.954	-271
0.955	-279
0.956	-284
0.957	-281
0.958	-279
0.959	-277
0.96	-275
0.961	-274
0.962	-273
0.963	-273
0.964	-273
0.965	-273
0.966	-273
0.967	-276
0.968	-279
0.969	-283
0.97	-285
0.971	-288
0.972	-290
0.973	-292
0.974	-291
0.975	-290
0.976	-288
0.977	-288
0.978	-288
0.979	-288
0.98	-289
0.981	-292
0.982	-296
0.983	-299
0.984	-306
0.985	-313
0.986	-321
0.987	-328
0.988	-331
0.989	-335
0.99	-338
0.991	-340
0.992	-343
0.993	-345
0.994	-346
0.995	-345
0.996	-343
0.997	-342
0.998	-343
0.999	-344
1	-346
1.001	-350
1.002	-358
1.003	-366
1.004	-374
1.005	-379
1.006	-385
1.007	-390
1.008	-391
1.009	-389
1.01	-387
1.011	-385
1.012	-387
1.013	-390
1.014	-392
1.015	-394
1.016	-396
1.017	-399
1.018	-402
1.019	-407
1.02	-413
1.021	-419
1.022	-420
1.023	-422
1.024	-423
1.025	-422
1.026	-419
1.027	-415
1.028	-412
1.029	-406
1.03	-401
1.031	-395
1.032	-391
1.033	-389
1.034	-387
1.035	-385
1.036	-388
1.037	-392
1.038	-395
1.039	-400
1.04	-405
1.041	-411
1.042	-414
1.043	-407
1.044	-399
1.045	-391
1.046	-384
1.047	-377
1.048	-370
1.049	-365
1.05	-361
1.051	-358
1.052	-354
1.053	-351
1.054	-348
1.055	-344
1.056	-340
1.057	-335
1.058	-329
1.059	-323
1.06	-318
1.061	-312
1.062	-306
1.063	-301
1.064	-297
1.065	-292
1.066	-288
1.067	-288
1.068	-288
1.069	-288
1.07	-287
1.071	-286
1.072	-285
1.073	-284
1.074	-280
1.075	-277
1.076	-274
1.077	-269
1.078	-263
1.079	-257
1.08	-252
1.081	-248
1.082	-243
1.083	-239
1.084	-240
1.085	-242
1.086	-244
1.087	-246
1.088	-246
1.089	-246
1.09	-246
1.091	-246
1.092	-246
1.093	-246
1.094	-242
1.095	-236
1.096	-229
1.097	-222
1.098	-218
1.099	-213
1.1	-209
1.101	-209
1.102	-212
1.103	-215
1.104	-219
1.105	-223
1.106	-228
1.107	-232
1.108	-234
1.109	-234
1.11	-234
1.111	-233
1.112	-228
1.113	-224
1.114	-219
1.115	-218
1.116	-218
1.117	-218
1.118	-218
1.119	-218
1.12	-218
1.121	-218
1.122	-224
1.123	-231
1.124	-238
1.125	-242
1.126	-243
1.127	-244
1.128	-245
1.129	-239
1.13	-232
1.131	-225
1.132	-223
1.133	-224
1.134	-225
1.135	-226
1.136	-224
1.137	-221
1.138	-219
1.139	-219
1.14	-220
1.141	-221
1.142	-224
1.143	-232
1.144	-240
1.145	-247
1.146	-245
1.147	-240
1.148	-234
1.149	-229
1.15	-224
1.151	-220
1.152	-215
1.153	-217
1.154	-221
1.155	-224
1.156	-229
1.157	-234
1.158	-240
1.159	-245
1.16	-247
1.161	-248
1.162	-249
1.163	-246
1.164	-241
1.165	-235
1.166	-230
1.167	-226
1.168	-223
1.169	-220
1.17	-219
1.171	-220
1.172	-221
1.173	-224
1.174	-232
1.175	-239
1.176	-247
1.177	-251
1.178	-253
1.179	-256
1.18	-255
1.181	-247
1.182	-239
1.183	-231
1.184	-225
1.185	-220
1.186	-214
1.187	-213
1.188	-219
1.189	-224
1.19	-230
1.191	-233
1.192	-237
1.193	-240
1.194	-243
1.195	-245
1.196	-247
1.197	-249
1.198	-245
1.199	-240
1.2	-236
1.201	-231
1.202	-227
1.203	-222
1.204	-219
1.205	-221
1.206	-223
1.207	-226
1.208	-229
1.209	-234
1.21	-238
1.211	-243
1.212	-246
1.213	-249
1.214	-253
1.215	-247
1.216	-239
1.217	-231
1.218	-225
1.219	-222
1.22	-218
1.221	-215
1.222	-220
1.223	-225
1.224	-231
1.225	-234
1.226	-236
1.227	-237
1.228	-238
1.229	-241
1.23	-245
1.231	-248
1.232	-246
1.233	-240
1.234	-235
1.235	-230
1.236	-227
1.237	-225
1.238	-223
1.239	-225
1.24	-228
1.241	-231
1.242	-234
1.243	-234
1.244	-234
1.245	-234
1.246	-233
1.247	-232
1.248	-231
1.249	-230
1.25	-229
1.251	-227
1.252	-226
1.253	-224
1.254	-222
1.255	-220
1.256	-220
1.257	-223
1.258	-227
1.259	-230
1.26	-231
1.261	-232
1.262	-233
1.263	-233
1.264	-232
1.265	-231
1.266	-230
1.267	-226
1.268	-223
1.269	-220
1.27	-217
1.271	-215
1.272	-212
1.273	-211
1.274	-215
1.275	-218
1.276	-222
1.277	-225
1.278	-228
1.279	-232
1.28	-233
1.281	-231
1.282	-229
1.283	-226
1.284	-223
1.285	-220
1.286	-216
1.287	-214
1.288	-211
1.289	-209
1.29	-207
1.291	-211
1.292	-216
1.293	-220
1.294	-224
1.295	-228
1.296	-231
1.297	-234
1.298	-233
1.299	-232
1.3	-230
1.301	-227
1.302	-223
1.303	-218
1.304	-214
1.305	-210
1.306	-207
1.307	-204
1.308	-205
1.309	-207
1.31	-209
1.311	-211
1.312	-214
1.313	-216
1.314	-218
1.315	-218
1.316	-218
1.317	-218
1.318	-217
1.319	-214
1.32	-210
1.321	-207
1.322	-208
1.323	-209
1.324	-210
1.325	-212
1.326	-214
1.327	-216
1.328	-219
1.329	-221
1.33	-223
1.331	-225
1.332	-227
1.333	-228
1.334	-229
1.335	-229
1.336	-222
1.337	-215
1.338	-209
1.339	-207
1.34	-207
1.341	-207
1.342	-208
1.343	-214
1.344	-220
1.345	-225
1.346	-229
1.347	-232
1.348	-236
1.349	-237
1.35	-235
1.351	-232
1.352	-230
1.353	-229
1.354	-228
1.355	-227
1.356	-229
1.357	-235
1.358	-240
1.359	-246
1.36	-259
1.361	-271
1.362	-283
1.363	-291
1.364	-295
1.365	-300
1.366	-304
1.367	-308
1.368	-311
1.369	-314
1.37	-314
1.371	-311
1.372	-309
1.373	-307
1.374	-306
1.375	-305
1.376	-304
1.377	-307
1.378	-312
1.379	-316
1.38	-320
1.381	-324
1.382	-327
1.383	-330
1.384	-333
1.385	-335
1.386	-337
1.387	-341
1.388	-347
1.389	-352
1.39	-357
1.391	-353
1.392	-349
1.393	-344
1.394	-346
1.395	-353
1.396	-360
1.397	-366
1.398	-371
1.399	-375
1.4	-380
1.401	-379
1.402	-375
1.403	-372
1.404	-370
1.405	-371
1.406	-372
1.407	-373
1.408	-370
1.409	-367
1.41	-364
1.411	-362
1.412	-365
1.413	-367
1.414	-369
1.415	-368
1.416	-367
1.417	-366
1.418	-364
1.419	-360
1.42	-357
1.421	-354
1.422	-346
1.423	-338
1.424	-330
1.425	-325
1.426	-323
1.427	-321
1.428	-320
1.429	-323
1.43	-326
1.431	-330
1.432	-332
1.433	-334
1.434	-337
1.435	-338
1.436	-337
1.437	-336
1.438	-335
1.439	-334
1.44	-333
1.441	-331
1.442	-329
1.443	-323
1.444	-318
1.445	-312
1.446	-311
1.447	-311
1.448	-311
1.449	-313
1.45	-318
1.451	-322
1.452	-327
1.453	-325
1.454	-322
1.455	-320
1.456	-316
1.457	-310
1.458	-305
1.459	-300
1.46	-298
1.461	-297
1.462	-296
1.463	-301
1.464	-309
1.465	-317
1.466	-323
1.467	-326
1.468	-328
1.469	-330
1.47	-326
1.471	-321
1.472	-315
1.473	-309
1.474	-304
1.475	-298
1.476	-293
1.477	-295
1.478	-298
1.479	-302
1.48	-305
1.481	-308
1.482	-312
1.483	-315
1.484	-319
1.485	-322
1.486	-325
1.487	-324
1.488	-320
1.489	-315
1.49	-311
1.491	-306
1.492	-302
1.493	-297
1.494	-297
1.495	-298
1.496	-299
1.497	-300
1.498	-300
1.499	-300
1.5	-300
1.501	-300
1.502	-300
1.503	-300
1.504	-298
1.505	-292
1.506	-287
1.507	-281
1.508	-274
1.509	-266
1.51	-258
1.511	-255
1.512	-260
1.513	-264
1.514	-269
1.515	-285
1.516	-302
1.517	-319
1.518	-341
1.519	-368
1.52	-395
1.521	-421
1.522	-441
1.523	-461
1.524	-481
1.525	-505
1.526	-532
1.527	-558
1.528	-588
1.529	-637
1.53	-682
1.531	-723
1.532	-756
1.533	-783
1.534	-807
1.535	-820
1.536	-815
1.537	-810
1.538	-805
1.539	-791
1.54	-773
1.541	-754
1.542	-729
1.543	-697
1.544	-662
1.545	-624
1.546	-574
1.547	-522
1.548	-469
1.549	-418
1.55	-370
1.551	-322
1.552	-276
1.553	-273
1.554	-270
1.555	-266
1.556	-266
1.557	-267
1.558	-268
1.559	-269
1.56	-274
1.561	-278
1.562	-283
1.563	-290
1.564	-298
1.565	-306
1.566	-313
1.567	-321
1.568	-329
1.569	-337
1.57	-338
1.571	-338
1.572	-338
1.573	-336
1.574	-331
1.575	-325
1.576	-319
1.577	-315
1.578	-310
1.579	-306
1.58	-306
1.581	-310
1.582	-315
1.583	-319
1.584	-320
1.585	-321
1.586	-322
1.587	-326
1.588	-330
1.589	-335
1.59	-338
1.591	-333
1.592	-329
1.593	-324
1.594	-317
1.595	-310
1.596	-302
1.597	-297
1.598	-301
1.599	-306
1.6	-310
1.601	-315
1.602	-319
1.603	-324
1.604	-329
1.605	-334
1.606	-340
1.607	-346
1.608	-338
1.609	-329
1.61	-320
1.611	-314
1.612	-310
1.613	-307
1.614	-304
1.615	-312
1.616	-319
1.617	-327
1.618	-333
1.619	-336
1.62	-339
1.621	-343
1.622	-345
1.623	-347
1.624	-349
1.625	-345
1.626	-339
1.627	-332
1.628	-326
1.629	-324
1.63	-322
1.631	-320
1.632	-323
1.633	-329
1.634	-335
1.635	-340
1.636	-344
1.637	-349
1.638	-353
1.639	-357
1.64	-360
1.641	-364
1.642	-360
1.643	-349
1.644	-338
1.645	-327
1.646	-327
1.647	-327
1.648	-327
1.649	-329
1.65	-332
1.651	-335
1.652	-339
1.653	-341
1.654	-343
1.655	-345
1.656	-350
1.657	-355
1.658	-361
1.659	-365
1.66	-361
1.661	-358
1.662	-355
1.663	-353
1.664	-352
1.665	-351
1.666	-350
1.667	-349
1.668	-347
1.669	-346
1.67	-352
1.671	-359
1.672	-365
1.673	-369
1.674	-369
1.675	-369
1.676	-369
1.677	-368
1.678	-367
1.679	-366
1.68	-365
1.681	-364
1.682	-363
1.683	-362
1.684	-366
1.685	-371
1.686	-375
1.687	-382
1.688	-390
1.689	-398
1.69	-404
1.691	-407
1.692	-409
1.693	-411
1.694	-409
1.695	-406
1.696	-403
1.697	-400
1.698	-397
1.699	-395
1.7	-393
1.701	-402
1.702	-413
1.703	-424
1.704	-432
1.705	-434
1.706	-436
1.707	-439
1.708	-441
1.709	-443
1.71	-445
1.711	-446
1.712	-445
1.713	-444
1.714	-442
1.715	-439
1.716	-436
1.717	-432
1.718	-433
1.719	-436
1.72	-440
1.721	-444
1.722	-450
1.723	-457
1.724	-464
1.725	-465
1.726	-464
1.727	-463
1.728	-461
1.729	-460
1.73	-459
1.731	-458
1.732	-453
1.733	-448
1.734	-442
1.735	-438
1.736	-437
1.737	-436
1.738	-435
1.739	-436
1.74	-437
1.741	-438
1.742	-439
1.743	-439
1.744	-439
1.745	-438
1.746	-429
1.747	-420
1.748	-412
1.749	-401
1.75	-390
1.751	-379
1.752	-369
1.753	-364
1.754	-360
1.755	-355
1.756	-355
1.757	-358
1.758	-360
1.759	-360
1.76	-353
1.761	-346
1.762	-340
1.763	-332
1.764	-324
1.765	-316
1.766	-310
1.767	-305
1.768	-301
1.769	-296
1.77	-296
1.771	-296
1.772	-296
1.773	-295
1.774	-293
1.775	-290
1.776	-288
1.777	-281
1.778	-274
1.779	-268
1.78	-263
1.781	-260
1.782	-256
1.783	-253
1.784	-247
1.785	-241
1.786	-236
1.787	-236
1.788	-240
1.789	-243
1.79	-246
1.791	-246
1.792	-246
1.793	-246
1.794	-246
1.795	-248
1.796	-249
1.797	-247
1.798	-242
1.799	-236
1.8	-231
1.801	-226
1.802	-222
1.803	-217
1.804	-216
1.805	-219
1.806	-223
1.807	-226
1.808	-228
1.809	-231
1.81	-233
1.811	-233
1.812	-232
1.813	-231
1.814	-230
1.815	-226
1.816	-223
1.817	-220
1.818	-216
1.819	-213
1.82	-209
1.821	-208
1.822	-215
1.823	-222
1.824	-228
1.825	-233
1.826	-236
1.827	-239
1.828	-241
1.829	-239
1.83	-236
1.831	-234
1.832	-228
1.833	-221
1.834	-215
1.835	-211
1.836	-212
1.837	-213
1.838	-215
1.839	-215
1.84	-215
1.841	-215
1.842	-216
1.843	-220
1.844	-223
1.845	-226
1.846	-224
1.847	-221
1.848	-219
1.849	-214
1.85	-207
1.851	-201
1.852	-195
1.853	-197
1.854	-198
1.855	-199
1.856	-203
1.857	-209
1.858	-214
1.859	-219
1.86	-220
1.861	-221
1.862	-222
1.863	-221
1.864	-220
1.865	-219
1.866	-218
1.867	-215
1.868	-213
1.869	-211
1.87	-206
1.871	-202
1.872	-197
1.873	-197
1.874	-200
1.875	-204
1.876	-207
1.877	-213
1.878	-218
1.879	-224
1.88	-224
1.881	-221
1.882	-217
1.883	-214
1.884	-209
1.885	-205
1.886	-200
1.887	-198
1.888	-197
1.889	-196
1.89	-197
1.891	-205
1.892	-213
1.893	-221
1.894	-221
1.895	-220
1.896	-219
1.897	-218
1.898	-215
1.899	-213
1.9	-211
1.901	-210
1.902	-209
1.903	-207
1.904	-207
1.905	-207
1.906	-207
1.907	-207
1.908	-208
1.909	-209
1.91	-210
1.911	-212
1.912	-214
1.913	-216
1.914	-218
1.915	-213
1.916	-209
1.917	-204
1.918	-201
1.919	-197
1.92	-194
1.921	-191
1.922	-191
1.923	-191
1.924	-191
1.925	-197
1.926	-203
1.927	-210
1.928	-215
1.929	-215
1.93	-215
1.931	-215
1.932	-211
1.933	-208
1.934	-205
1.935	-201
1.936	-196
1.937	-192
1.938	-187
1.939	-187
1.94	-187
1.941	-187
1.942	-189
1.943	-193
1.944	-196
1.945	-200
1.946	-204
1.947	-209
1.948	-213
1.949	-212
1.95	-209
1.951	-206
1.952	-202
1.953	-197
1.954	-193
1.955	-188
1.956	-187
1.957	-185
1.958	-184
1.959	-185
1.96	-190
1.961	-194
1.962	-199
1.963	-203
1.964	-208
1.965	-212
1.966	-213
1.967	-210
1.968	-206
1.969	-203
1.97	-200
1.971	-196
1.972	-193
1.973	-189
1.974	-186
1.975	-183
1.976	-180
1.977	-183
1.978	-187
1.979	-190
1.98	-194
1.981	-197
1.982	-200
1.983	-202
1.984	-200
1.985	-198
1.986	-196
1.987	-193
1.988	-191
1.989	-189
1.99	-187
1.991	-187
1.992	-187
1.993	-187
1.994	-192
1.995	-198
1.996	-204
1.997	-208
1.998	-210
1.999	-212
2	-214
2.001	-210
2.002	-206
2.003	-201
2.004	-196
2.005	-190
2.006	-185
2.007	-179
2.008	-176
2.009	-173
2.01	-169
2.011	-173
2.012	-181
2.013	-189
2.014	-196
2.015	-198
2.016	-200
2.017	-202
2.018	-199
2.019	-193
2.02	-188
2.021	-183
2.022	-182
2.023	-181
2.024	-180
2.025	-182
2.026	-184
2.027	-186
2.028	-188
2.029	-191
2.03	-193
2.031	-195
2.032	-198
2.033	-202
2.034	-205
2.035	-205
2.036	-202
2.037	-198
2.038	-195
2.039	-190
2.04	-186
2.041	-181
2.042	-181
2.043	-183
2.044	-186
2.045	-188
2.046	-190
2.047	-192
2.048	-195
2.049	-197
2.05	-199
2.051	-201
2.052	-201
2.053	-194
2.054	-188
2.055	-181
2.056	-177
2.057	-174
2.058	-170
2.059	-169
2.06	-173
2.061	-176
2.062	-179
2.063	-189
2.064	-199
2.065	-209
2.066	-213
2.067	-210
2.068	-206
2.069	-203
2.07	-196
2.071	-189
2.072	-182
2.073	-178
2.074	-174
2.075	-171
2.076	-168
2.077	-169
2.078	-171
2.079	-172
2.08	-176
2.081	-182
2.082	-187
2.083	-192
2.084	-197
2.085	-201
2.086	-206
2.087	-201
2.088	-195
2.089	-188
2.09	-182
2.091	-179
2.092	-176
2.093	-172
2.094	-175
2.095	-178
2.096	-182
2.097	-185
2.098	-187
2.099	-189
2.1	-191
2.101	-194
2.102	-196
2.103	-198
2.104	-196
2.105	-190
2.106	-185
2.107	-180
2.108	-178
2.109	-177
2.11	-176
2.111	-179
2.112	-183
2.113	-188
2.114	-192
2.115	-193
2.116	-194
2.117	-195
2.118	-198
2.119	-201
2.12	-205
2.121	-204
2.122	-195
2.123	-186
2.124	-177
2.125	-178
2.126	-180
2.127	-182
2.128	-184
2.129	-184
2.13	-184
2.131	-184
2.132	-189
2.133	-195
2.134	-200
2.135	-203
2.136	-203
2.137	-203
2.138	-202
2.139	-197
2.14	-191
2.141	-185
2.142	-184
2.143	-184
2.144	-184
2.145	-184
2.146	-186
2.147	-189
2.148	-191
2.149	-192
2.15	-193
2.151	-194
2.152	-196
2.153	-198
2.154	-200
2.155	-203
2.156	-201
2.157	-199
2.158	-196
2.159	-194
2.16	-192
2.161	-190
2.162	-188
2.163	-193
2.164	-199
2.165	-204
2.166	-210
2.167	-215
2.168	-221
2.169	-226
2.17	-222
2.171	-219
2.172	-216
2.173	-212
2.174	-207
2.175	-203
2.176	-199
2.177	-199
2.178	-199
2.179	-199
2.18	-201
2.181	-203
2.182	-205
2.183	-210
2.184	-220
2.185	-230
2.186	-240
2.187	-244
2.188	-246
2.189	-248
2.19	-248
2.191	-245
2.192	-241
2.193	-238
2.194	-233
2.195	-229
2.196	-224
2.197	-222
2.198	-222
2.199	-222
2.2	-223
2.201	-230
2.202	-236
2.203	-243
2.204	-248
2.205	-251
2.206	-254
2.207	-256
2.208	-251
2.209	-245
2.21	-239
2.211	-230
2.212	-220
2.213	-210
2.214	-204
2.215	-209
2.216	-213
2.217	-218
2.218	-217
2.219	-216
2.22	-215
2.221	-213
2.222	-208
2.223	-204
2.224	-199
2.225	-194
2.226	-188
2.227	-183
2.228	-178
2.229	-175
2.23	-171
2.231	-168
2.232	-173
2.233	-177
2.234	-182
2.235	-186
2.236	-189
2.237	-192
2.238	-195
2.239	-195
2.24	-195
2.241	-195
2.242	-191
2.243	-186
2.244	-180
2.245	-175
2.246	-173
2.247	-171
2.248	-169
2.249	-170
2.25	-172
2.251	-174
2.252	-178
2.253	-182
2.254	-186
2.255	-191
2.256	-187
2.257	-183
2.258	-178
2.259	-175
2.26	-174
2.261	-173
2.262	-172
2.263	-166
2.264	-161
2.265	-155
2.266	-157
2.267	-163
2.268	-170
2.269	-176
2.27	-180
2.271	-183
2.272	-186
2.273	-187
2.274	-186
2.275	-184
2.276	-182
2.277	-175
2.278	-168
2.279	-162
2.28	-159
2.281	-158
2.282	-157
2.283	-158
2.284	-163
2.285	-167
2.286	-172
2.287	-174
2.288	-176
2.289	-178
2.29	-179
2.291	-178
2.292	-177
2.293	-176
2.294	-174
2.295	-171
2.296	-169
2.297	-164
2.298	-158
2.299	-151
2.3	-146
2.301	-151
2.302	-157
2.303	-162
2.304	-163
2.305	-162
2.306	-161
2.307	-159
2.308	-154
2.309	-148
2.31	-142
2.311	-141
2.312	-141
2.313	-141
2.314	-144
2.315	-151
2.316	-159
2.317	-167
2.318	-195
2.319	-225
2.32	-256
2.321	-283
2.322	-308
2.323	-333
2.324	-358
2.325	-384
2.326	-411
2.327	-438
2.328	-473
2.329	-514
2.33	-554
2.331	-594
2.332	-637
2.333	-678
2.334	-715
2.335	-728
2.336	-729
2.337	-730
2.338	-727
2.339	-710
2.34	-693
2.341	-674
2.342	-641
2.343	-601
2.344	-559
2.345	-513
2.346	-459
2.347	-404
2.348	-350
2.349	-291
2.35	-231
2.351	-172
2.352	-132
2.353	-120
2.354	-107
2.355	-95
2.356	-105
2.357	-116
2.358	-127
2.359	-139
2.36	-150
2.361	-161
2.362	-172
2.363	-175
2.364	-179
2.365	-182
2.366	-185
2.367	-187
2.368	-189
2.369	-192
2.37	-194
2.371	-196
2.372	-198
2.373	-202
2.374	-207
2.375	-211
2.376	-213
2.377	-209
2.378	-204
2.379	-200
2.38	-197
2.381	-195
2.382	-193
2.383	-191
2.384	-190
2.385	-189
2.386	-188
2.387	-192
2.388	-198
2.389	-204
2.39	-207
2.391	-207
2.392	-207
2.393	-207
2.394	-206
2.395	-205
2.396	-203
2.397	-201
2.398	-198
2.399	-194
2.4	-192
2.401	-196
2.402	-201
2.403	-205
2.404	-210
2.405	-214
2.406	-219
2.407	-223
2.408	-224
2.409	-225
2.41	-226
2.411	-224
2.412	-220
2.413	-217
2.414	-214
2.415	-212
2.416	-209
2.417	-207
2.418	-206
2.419	-205
2.42	-204
2.421	-206
2.422	-214
2.423	-222
2.424	-230
2.425	-234
2.426	-239
2.427	-243
2.428	-241
2.429	-233
2.43	-226
2.431	-218
2.432	-216
2.433	-214
2.434	-211
2.435	-210
2.436	-209
2.437	-208
2.438	-208
2.439	-213
2.44	-219
2.441	-225
2.442	-231
2.443	-238
2.444	-245
2.445	-249
2.446	-246
2.447	-244
2.448	-242
2.449	-239
2.45	-235
2.451	-232
2.452	-231
2.453	-233
2.454	-235
2.455	-238
2.456	-238
2.457	-238
2.458	-238
2.459	-241
2.46	-246
2.461	-252
2.462	-257
2.463	-255
2.464	-252
2.465	-250
2.466	-247
2.467	-244
2.468	-241
2.469	-238
2.47	-240
2.471	-243
2.472	-245
2.473	-251
2.474	-259
2.475	-267
2.476	-274
2.477	-278
2.478	-283
2.479	-287
2.48	-288
2.481	-288
2.482	-288
2.483	-287
2.484	-283
2.485	-280
2.486	-277
2.487	-281
2.488	-285
2.489	-290
2.49	-296
2.491	-305
2.492	-314
2.493	-323
2.494	-328
2.495	-332
2.496	-337
2.497	-337
2.498	-335
2.499	-333
2.5	-330
2.501	-329
2.502	-328
2.503	-327
2.504	-331
2.505	-336
2.506	-342
2.507	-348
2.508	-355
2.509	-361
2.51	-368
2.511	-370
2.512	-371
2.513	-372
2.514	-373
2.515	-372
2.516	-371
2.517	-369
2.518	-371
2.519	-374
2.52	-376
2.521	-379
2.522	-382
2.523	-385
2.524	-389
2.525	-392
2.526	-395
2.527	-399
2.528	-401
2.529	-402
2.53	-403
2.531	-403
2.532	-399
2.533	-395
2.534	-390
2.535	-385
2.536	-379
2.537	-374
2.538	-369
2.539	-369
2.54	-369
2.541	-369
2.542	-369
2.543	-369
2.544	-369
2.545	-369
2.546	-369
2.547	-369
2.548	-369
2.549	-361
2.55	-352
2.551	-343
2.552	-337
2.553	-335
2.554	-333
2.555	-331
2.556	-327
2.557	-324
2.558	-321
2.559	-319
2.56	-319
2.561	-319
2.562	-319
2.563	-315
2.564	-312
2.565	-309
2.566	-304
2.567	-298
2.568	-292
2.569	-286
2.57	-277
2.571	-268
2.572	-259
2.573	-254
2.574	-249
2.575	-245
2.576	-242
2.577	-242
2.578	-242
2.579	-242
2.58	-241
2.581	-240
2.582	-238
2.583	-235
2.584	-230
2.585	-224
2.586	-219
2.587	-214
2.588	-210
2.589	-205
2.59	-202
2.591	-201
2.592	-200
2.593	-199
2.594	-203
2.595	-206
2.596	-209
2.597	-213
2.598	-216
2.599	-220
2.6	-221
2.601	-217
2.602	-212
2.603	-208
2.604	-204
2.605	-201
2.606	-198
2.607	-196
2.608	-200
2.609	-203
2.61	-206
2.611	-205
2.612	-203
2.613	-200
2.614	-199
2.615	-197
2.616	-196
2.617	-195
2.618	-191
2.619	-186
2.62	-182
2.621	-180
2.622	-180
2.623	-180
2.624	-180
2.625	-183
2.626	-187
2.627	-190
2.628	-192
2.629	-193
2.63	-194
2.631	-196
2.632	-198
2.633	-200
2.634	-202
2.635	-200
2.636	-197
2.637	-194
2.638	-190
2.639	-186
2.64	-181
2.641	-177
2.642	-180
2.643	-184
2.644	-189
2.645	-193
2.646	-199
2.647	-205
2.648	-210
2.649	-213
2.65	-215
2.651	-217
2.652	-213
2.653	-203
2.654	-193
2.655	-184
2.656	-182
2.657	-181
2.658	-180
2.659	-184
2.66	-190
2.661	-197
2.662	-203
2.663	-206
2.664	-208
2.665	-210
2.666	-212
2.667	-215
2.668	-217
2.669	-217
2.67	-210
2.671	-203
2.672	-196
2.673	-192
2.674	-189
2.675	-186
2.676	-186
2.677	-191
2.678	-197
2.679	-202
2.68	-204
2.681	-205
2.682	-206
2.683	-210
2.684	-217
2.685	-223
2.686	-230
2.687	-222
2.688	-214
2.689	-206
2.69	-200
2.691	-196
2.692	-191
2.693	-188
2.694	-191
2.695	-195
2.696	-198
2.697	-201
2.698	-205
2.699	-208
2.7	-212
2.701	-216
2.702	-221
2.703	-225
2.704	-223
2.705	-218
2.706	-214
2.707	-210
2.708	-206
2.709	-203
2.71	-199
2.711	-203
2.712	-208
2.713	-212
2.714	-215
2.715	-215
2.716	-215
2.717	-215
2.718	-219
2.719	-224
2.72	-228
2.721	-227
2.722	-221
2.723	-216
2.724	-210
2.725	-207
2.726	-204
2.727	-200
2.728	-201
2.729	-205
2.73	-208
2.731	-211
2.732	-213
2.733	-216
2.734	-218
2.735	-220
2.736	-222
2.737	-225
2.738	-224
2.739	-219
2.74	-213
2.741	-207
2.742	-205
2.743	-203
2.744	-200
2.745	-200
2.746	-202
2.747	-205
2.748	-207
2.749	-210
2.75	-213
2.751	-217
2.752	-218
2.753	-217
2.754	-216
2.755	-214
2.756	-207
2.757	-200
2.758	-194
2.759	-190
2.76	-188
2.761	-185
2.762	-185
2.763	-193
2.764	-201
2.765	-209
2.766	-215
2.767	-221
2.768	-226
2.769	-229
2.77	-226
2.771	-222
2.772	-219
2.773	-213
2.774	-206
2.775	-199
2.776	-193
2.777	-189
2.778	-184
2.779	-180
2.78	-186
2.781	-193
2.782	-200
2.783	-203
2.784	-203
2.785	-203
2.786	-203
2.787	-205
2.788	-208
2.789	-210
2.79	-208
2.791	-203
2.792	-199
2.793	-195
2.794	-191
2.795	-188
2.796	-184
2.797	-185
2.798	-187
2.799	-190
2.8	-193
2.801	-197
2.802	-202
2.803	-206
2.804	-206
2.805	-205
2.806	-204
2.807	-202
2.808	-201
2.809	-200
2.81	-199
2.811	-195
2.812	-190
2.813	-186
2.814	-187
2.815	-194
2.816	-200
2.817	-207
2.818	-210
2.819	-214
2.82	-217
2.821	-216
2.822	-213
2.823	-210
2.824	-206
2.825	-203
2.826	-200
2.827	-196
2.828	-194
2.829	-191
2.83	-189
2.831	-188
2.832	-189
2.833	-190
2.834	-191
2.835	-197
2.836	-204
2.837	-210
2.838	-214
2.839	-211
2.84	-209
2.841	-207
2.842	-202
2.843	-196
2.844	-190
2.845	-186
2.846	-184
2.847	-182
2.848	-180
2.849	-186
2.85	-191
2.851	-197
2.852	-202
2.853	-208
2.854	-214
2.855	-218
2.856	-217
2.857	-216
2.858	-215
2.859	-211
2.86	-205
2.861	-199
2.862	-194
2.863	-188
2.864	-183
2.865	-177
2.866	-178
2.867	-180
2.868	-182
2.869	-186
2.87	-194
2.871	-202
2.872	-210
2.873	-207
2.874	-202
2.875	-198
2.876	-194
2.877	-192
2.878	-190
2.879	-187
2.88	-185
2.881	-183
2.882	-181
2.883	-184
2.884	-190
2.885	-197
2.886	-203
2.887	-208
2.888	-212
2.889	-217
2.89	-217
2.891	-215
2.892	-212
2.893	-210
2.894	-208
2.895	-206
2.896	-203
2.897	-200
2.898	-197
2.899	-194
2.9	-193
2.901	-199
2.902	-204
2.903	-210
2.904	-214
2.905	-217
2.906	-220
2.907	-221
2.908	-219
2.909	-217
2.91	-215
2.911	-212
2.912	-210
2.913	-208
2.914	-206
2.915	-205
2.916	-204
2.917	-203
2.918	-208
2.919	-212
2.92	-217
2.921	-224
2.922	-231
2.923	-239
2.924	-246
2.925	-251
2.926	-255
2.927	-260
2.928	-261
2.929	-261
2.93	-261
2.931	-261
2.932	-260
2.933	-258
2.934	-257
2.935	-261
2.936	-266
2.937	-270
2.938	-275
2.939	-279
2.94	-283
2.941	-288
2.942	-288
2.943	-288
2.944	-288
2.945	-286
2.946	-281
2.947	-277
2.948	-273
2.949	-275
2.95	-277
2.951	-280
2.952	-285
2.953	-293
2.954	-301
2.955	-309
2.956	-317
2.957	-325
2.958	-332
2.959	-330
2.96	-323
2.961	-316
2.962	-312
2.963	-313
2.964	-314
2.965	-315
2.966	-314
2.967	-313
2.968	-312
2.969	-313
2.97	-316
2.971	-319
2.972	-323
2.973	-328
2.974	-334
2.975	-340
2.976	-343
2.977	-346
2.978	-348
2.979	-350
2.98	-348
2.981	-345
2.982	-343
2.983	-341
2.984	-339
2.985	-336
2.986	-335
2.987	-337
2.988	-339
2.989	-342
2.99	-346
2.991	-350
2.992	-354
2.993	-358
2.994	-359
2.995	-360
2.996	-361
2.997	-363
2.998	-364
2.999	-365
3	-365
3.001	-362
3.002	-360
3.003	-358
3.004	-358
3.005	-358
3.006	-358
3.007	-360
3.008	-366
3.009	-372
3.01	-377
3.011	-372
3.012	-368
3.013	-363
3.014	-362
3.015	-362
3.016	-362
3.017	-361
3.018	-354
3.019	-347
3.02	-340
3.021	-340
3.022	-342
3.023	-344
3.024	-346
3.025	-345
3.026	-344
3.027	-342
3.028	-338
3.029	-332
3.03	-327
3.031	-322
3.032	-318
3.033	-315
3.034	-312
3.035	-311
3.036	-311
3.037	-311
3.038	-314
3.039	-320
3.04	-325
3.041	-331
3.042	-331
3.043	-331
3.044	-331
3.045	-329
3.046	-325
3.047	-322
3.048	-318
3.049	-314
3.05	-309
3.051	-305
3.052	-304
3.053	-304
3.054	-304
3.055	-304
3.056	-308
3.057	-311
3.058	-314
3.059	-315
3.06	-315
3.061	-315
3.062	-314
3.063	-309
3.064	-305
3.065	-300
3.066	-299
3.067	-298
3.068	-296
3.069	-295
3.07	-294
3.071	-293
3.072	-292
3.073	-294
3.074	-296
3.075	-299
3.076	-302
3.077	-307
3.078	-311
3.079	-314
3.08	-306
3.081	-299
3.082	-291
3.083	-286
3.084	-282
3.085	-279
3.086	-277
3.087	-278
3.088	-279
3.089	-280
3.09	-285
3.091	-290
3.092	-296
3.093	-300
3.094	-301
3.095	-302
3.096	-303
3.097	-300
3.098	-295
3.099	-291
3.1	-286
3.101	-282
3.102	-277
3.103	-273
3.104	-277
3.105	-282
3.106	-286
3.107	-289
3.108	-290
3.109	-291
3.11	-292
3.111	-292
3.112	-292
3.113	-292
3.114	-287
3.115	-279
3.116	-271
3.117	-265
3.118	-266
3.119	-267
3.12	-268
3.121	-276
3.122	-287
3.123	-297
3.124	-311
3.125	-333
3.126	-355
3.127	-378
3.128	-401
3.129	-425
3.13	-448
3.131	-472
3.132	-495
3.133	-518
3.134	-541
3.135	-586
3.136	-629
3.137	-670
3.138	-703
3.139	-728
3.14	-751
3.141	-770
3.142	-768
3.143	-766
3.144	-764
3.145	-752
3.146	-733
3.147	-713
3.148	-689
3.149	-654
3.15	-617
3.151	-578
3.152	-529
3.153	-476
3.154	-423
3.155	-371
3.156	-325
3.157	-279
3.158	-233
3.159	-221
3.16	-216
3.161	-210
3.162	-212
3.163	-224
3.164	-236
3.165	-249
3.166	-252
3.167	-254
3.168	-256
3.169	-261
3.17	-269
3.171	-277
3.172	-285
3.173	-291
3.174	-298
3.175	-305
3.176	-312
3.177	-318
3.178	-325
3.179	-330
3.18	-323
3.181	-316
3.182	-309
3.183	-304
3.184	-300
3.185	-295
3.186	-292
3.187	-292
3.188	-292
3.189	-292
3.19	-295
3.191	-298
3.192	-302
3.193	-305
3.194	-310
3.195	-314
3.196	-319
3.197	-320
3.198	-321
3.199	-322
3.2	-321
3.201	-318
3.202	-315
3.203	-311
3.204	-309
3.205	-307
3.206	-304
3.207	-306
3.208	-309
3.209	-312
3.21	-316
3.211	-320
3.212	-325
3.213	-329
3.214	-329
3.215	-327
3.216	-325
3.217	-321
3.218	-313
3.219	-305
3.22	-297
3.221	-295
3.222	-294
3.223	-293
3.224	-294
3.225	-300
3.226	-305
3.227	-311
3.228	-318
3.229	-324
3.23	-331
3.231	-335
3.232	-335
3.233	-335
3.234	-334
3.235	-330
3.236	-325
3.237	-321
3.238	-319
3.239	-319
3.24	-319
3.241	-320
3.242	-323
3.243	-326
3.244	-330
3.245	-331
3.246	-333
3.247	-334
3.248	-335
3.249	-336
3.25	-337
3.251	-338
3.252	-334
3.253	-328
3.254	-323
3.255	-319
3.256	-319
3.257	-319
3.258	-319
3.259	-322
3.26	-325
3.261	-329
3.262	-333
3.263	-339
3.264	-344
3.265	-350
3.266	-351
3.267	-352
3.268	-353
3.269	-351
3.27	-347
3.271	-342
3.272	-338
3.273	-338
3.274	-338
3.275	-338
3.276	-340
3.277	-342
3.278	-344
3.279	-346
3.28	-347
3.281	-349
3.282	-350
3.283	-354
3.284	-360
3.285	-366
3.286	-369
3.287	-366
3.288	-364
3.289	-362
3.29	-362
3.291	-362
3.292	-362
3.293	-364
3.294	-368
3.295	-372
3.296	-377
3.297	-381
3.298	-386
3.299	-390
3.3	-393
3.301	-394
3.302	-395
3.303	-396
3.304	-395
3.305	-394
3.306	-393
3.307	-392
3.308	-392
3.309	-392
3.31	-394
3.311	-399
3.312	-405
3.313	-410
3.314	-418
3.315	-425
3.316	-433
3.317	-438
3.318	-437
3.319	-436
3.32	-435
3.321	-436
3.322	-437
3.323	-438
3.324	-437
3.325	-434
3.326	-431
3.327	-427
3.328	-433
3.329	-438
3.33	-444
3.331	-446
3.332	-446
3.333	-446
3.334	-446
3.335	-445
3.336	-444
3.337	-443
3.338	-440
3.339	-435
3.34	-431
3.341	-427
3.342	-425
3.343	-422
3.344	-420
3.345	-423
3.346	-427
3.347	-432
3.348	-434
3.349	-431
3.35	-427
3.351	-424
3.352	-420
3.353	-415
3.354	-411
3.355	-404
3.356	-395
3.357	-386
3.358	-378
3.359	-371
3.36	-364
3.361	-357
3.362	-354
3.363	-356
3.364	-357
3.365	-357
3.366	-353
3.367	-349
3.368	-344
3.369	-336
3.37	-326
3.371	-316
3.372	-307
3.373	-302
3.374	-298
3.375	-293
3.376	-287
3.377	-280
3.378	-274
3.379	-269
3.38	-270
3.381	-271
3.382	-272
3.383	-274
3.384	-275
3.385	-276
3.386	-275
3.387	-270
3.388	-266
3.389	-261
3.39	-254
3.391	-246
3.392	-238
3.393	-232
3.394	-227
3.395	-223
3.396	-219
3.397	-222
3.398	-225
3.399	-229
3.4	-232
3.401	-235
3.402	-239
3.403	-241
3.404	-235
3.405	-230
3.406	-224
3.407	-218
3.408	-213
3.409	-207
3.41	-203
3.411	-204
3.412	-205
3.413	-207
3.414	-210
3.415	-215
3.416	-219
3.417	-223
3.418	-224
3.419	-225
3.42	-226
3.421	-225
3.422	-224
3.423	-223
3.424	-219
3.425	-211
3.426	-203
3.427	-195
3.428	-194
3.429	-193
3.43	-192
3.431	-194
3.432	-200
3.433	-206
3.434	-211
3.435	-212
3.436	-213
3.437	-214
3.438	-213
3.439	-211
3.44	-209
3.441	-206
3.442	-203
3.443	-199
3.444	-196
3.445	-193
3.446	-191
3.447	-189
3.448	-189
3.449	-192
3.45	-195
3.451	-199
3.452	-205
3.453	-212
3.454	-218
3.455	-221
3.456	-219
3.457	-217
3.458	-215
3.459	-210
3.46	-206
3.461	-201
3.462	-197
3.463	-192
3.464	-188
3.465	-184
3.466	-192
3.467	-200
3.468	-208
3.469	-213
3.47	-216
3.471	-220
3.472	-222
3.473	-220
3.474	-217
3.475	-215
3.476	-212
3.477	-209
3.478	-205
3.479	-203
3.48	-204
3.481	-206
3.482	-207
3.483	-212
3.484	-217
3.485	-223
3.486	-228
3.487	-231
3.488	-234
3.489	-238
3.49	-230
3.491	-222
3.492	-214
3.493	-210
3.494	-209
3.495	-208
3.496	-207
3.497	-207
3.498	-207
3.499	-207
3.5	-208
3.501	-209
3.502	-210
3.503	-212
3.504	-221
3.505	-230
3.506	-239
3.507	-234
3.508	-224
3.509	-214
3.51	-207
3.511	-207
3.512	-207
3.513	-207
3.514	-206
3.515	-205
3.516	-204
3.517	-205
3.518	-209
3.519	-214
3.52	-218
3.521	-222
3.522	-225
3.523	-228
3.524	-227
3.525	-222
3.526	-216
3.527	-211
3.528	-208
3.529	-206
3.53	-204
3.531	-202
3.532	-201
3.533	-200
3.534	-199
3.535	-202
3.536	-204
3.537	-206
3.538	-209
3.539	-213
3.54	-216
3.541	-217
3.542	-213
3.543	-208
3.544	-204
3.545	-198
3.546	-193
3.547	-187
3.548	-184
3.549	-187
3.55	-189
3.551	-191
3.552	-196
3.553	-202
3.554	-208
3.555	-212
3.556	-214
3.557	-216
3.558	-218
3.559	-216
3.56	-214
3.561	-212
3.562	-206
3.563	-197
3.564	-188
3.565	-180
3.566	-181
3.567	-182
3.568	-183
3.569	-187
3.57	-191
3.571	-196
3.572	-200
3.573	-203
3.574	-207
3.575	-210
3.576	-208
3.577	-205
3.578	-201
3.579	-197
3.58	-192
3.581	-186
3.582	-180
3.583	-185
3.584	-190
3.585	-196
3.586	-199
3.587	-199
3.588	-199
3.589	-199
3.59	-202
3.591	-206
3.592	-209
3.593	-208
3.594	-202
3.595	-196
3.596	-191
3.597	-188
3.598	-184
3.599	-181
3.6	-180
3.601	-180
3.602	-180
3.603	-181
3.604	-188
3.605	-195
3.606	-201
3.607	-205
3.608	-207
3.609	-209
3.61	-209
3.611	-205
3.612	-200
3.613	-196
3.614	-191
3.615	-187
3.616	-182
3.617	-181
3.618	-184
3.619	-188
3.62	-191
3.621	-191
3.622	-191
3.623	-191
3.624	-193
3.625	-196
3.626	-200
3.627	-203
3.628	-199
3.629	-196
3.63	-193
3.631	-190
3.632	-188
3.633	-185
3.634	-184
3.635	-186
3.636	-188
3.637	-191
3.638	-190
3.639	-189
3.64	-188
3.641	-189
3.642	-193
3.643	-198
3.644	-202
3.645	-199
3.646	-195
3.647	-190
3.648	-187
3.649	-184
3.65	-182
3.651	-180
3.652	-182
3.653	-184
3.654	-186
3.655	-189
3.656	-193
3.657	-196
3.658	-199
3.659	-201
3.66	-204
3.661	-206
3.662	-203
3.663	-198
3.664	-192
3.665	-187
3.666	-182
3.667	-178
3.668	-173
3.669	-175
3.67	-180
3.671	-184
3.672	-188
3.673	-190
3.674	-193
3.675	-195
3.676	-199
3.677	-203
3.678	-208
3.679	-208
3.68	-200
3.681	-192
3.682	-184
3.683	-180
3.684	-177
3.685	-174
3.686	-174
3.687	-179
3.688	-183
3.689	-187
3.69	-189
3.691	-190
3.692	-191
3.693	-193
3.694	-197
3.695	-200
3.696	-202
3.697	-194
3.698	-186
3.699	-178
3.7	-175
3.701	-174
3.702	-173
3.703	-173
3.704	-176
3.705	-180
3.706	-183
3.707	-186
3.708	-190
3.709	-193
3.71	-196
3.711	-200
3.712	-203
3.713	-207
3.714	-200
3.715	-192
3.716	-184
3.717	-178
3.718	-175
3.719	-171
3.72	-168
3.721	-172
3.722	-175
3.723	-178
3.724	-182
3.725	-185
3.726	-188
3.727	-192
3.728	-194
3.729	-196
3.73	-198
3.731	-194
3.732	-188
3.733	-181
3.734	-176
3.735	-177
3.736	-178
3.737	-179
3.738	-181
3.739	-184
3.74	-186
3.741	-187
3.742	-187
3.743	-187
3.744	-187
3.745	-187
3.746	-187
3.747	-187
3.748	-186
3.749	-184
3.75	-182
3.751	-180
3.752	-177
3.753	-175
3.754	-173
3.755	-175
3.756	-181
3.757	-186
3.758	-192
3.759	-196
3.76	-201
3.761	-205
3.762	-208
3.763	-211
3.764	-213
3.765	-213
3.766	-208
3.767	-202
3.768	-197
3.769	-196
3.77	-197
3.771	-198
3.772	-200
3.773	-202
3.774	-204
3.775	-207
3.776	-212
3.777	-217
3.778	-223
3.779	-227
3.78	-229
3.781	-232
3.782	-234
3.783	-231
3.784	-227
3.785	-224
3.786	-223
3.787	-224
3.788	-225
3.789	-226
3.79	-227
3.791	-229
3.792	-230
3.793	-233
3.794	-237
3.795	-242
3.796	-245
3.797	-241
3.798	-238
3.799	-235
3.8	-232
3.801	-230
3.802	-228
3.803	-225
3.804	-223
3.805	-221
3.806	-219
3.807	-221
3.808	-225
3.809	-228
3.81	-231
3.811	-233
3.812	-235
3.813	-238
3.814	-231
3.815	-225
3.816	-218
3.817	-211
3.818	-204
3.819	-198
3.82	-191
3.821	-187
3.822	-182
3.823	-178
3.824	-177
3.825	-179
3.826	-182
3.827	-184
3.828	-189
3.829	-193
3.83	-198
3.831	-197
3.832	-195
3.833	-193
3.834	-190
3.835	-187
3.836	-184
3.837	-180
3.838	-174
3.839	-167
3.84	-161
3.841	-160
3.842	-169
3.843	-178
3.844	-187
3.845	-186
3.846	-185
3.847	-184
3.848	-185
3.849	-187
3.85	-189
3.851	-191
3.852	-183
3.853	-175
3.854	-167
3.855	-161
3.856	-155
3.857	-150
3.858	-146
3.859	-157
3.86	-167
3.861	-177
3.862	-181
3.863	-182
3.864	-183
3.865	-183
3.866	-181
3.867	-179
3.868	-176
3.869	-170
3.87	-164
3.871	-157
3.872	-154
3.873	-159
3.874	-163
3.875	-168
3.876	-169
3.877	-170
3.878	-171
3.879	-173
3.88	-175
3.881	-178
3.882	-180
3.883	-179
3.884	-177
3.885	-176
3.886	-173
3.887	-169
3.888	-164
3.889	-160
3.89	-160
3.891	-160
3.892	-160
3.893	-162
3.894	-164
3.895	-166
3.896	-168
3.897	-167
3.898	-166
3.899	-164
3.9	-163
3.901	-162
3.902	-161
3.903	-158
3.904	-153
3.905	-147
3.906	-142
3.907	-137
3.908	-133
3.909	-128
3.91	-133
3.911	-148
3.912	-164
3.913	-180
3.914	-205
3.915	-229
3.916	-254
3.917	-276
3.918	-295
3.919	-314
3.92	-334
3.921	-362
3.922	-390
3.923	-418
3.924	-454
3.925	-494
3.926	-534
3.927	-574
3.928	-619
3.929	-662
3.93	-702
3.931	-711
3.932	-712
3.933	-713
3.934	-706
3.935	-684
3.936	-660
3.937	-636
3.938	-599
3.939	-559
3.94	-519
3.941	-476
3.942	-431
3.943	-385
3.944	-339
3.945	-289
3.946	-240
3.947	-191
3.948	-158
3.949	-140
3.95	-122
3.951	-107
3.952	-117
3.953	-127
3.954	-137
3.955	-142
3.956	-145
3.957	-147
3.958	-150
3.959	-154
3.96	-159
3.961	-163
3.962	-170
3.963	-178
3.964	-186
3.965	-193
3.966	-197
3.967	-202
3.968	-206
3.969	-204
3.97	-201
3.971	-197
3.972	-192
3.973	-186
3.974	-179
3.975	-172
3.976	-173
3.977	-174
3.978	-175
3.979	-179
3.98	-186
3.981	-193
3.982	-199
3.983	-205
3.984	-211
3.985	-216
3.986	-218
3.987	-217
3.988	-215
3.989	-213
3.99	-207
3.991	-200
3.992	-193
3.993	-190
3.994	-187
3.995	-185
3.996	-185
3.997	-189
3.998	-194
3.999	-198
4	-203
4.001	-207
4.002	-212
4.003	-214
4.004	-211
4.005	-209
4.006	-207
4.007	-205
4.008	-202
4.009	-200
4.01	-199
4.011	-199
4.012	-199
4.013	-199
4.014	-204
4.015	-208
4.016	-213
4.017	-217
4.018	-222
4.019	-226
4.02	-229
4.021	-224
4.022	-218
4.023	-212
4.024	-210
4.025	-209
4.026	-208
4.027	-207
4.028	-210
4.029	-212
4.03	-214
4.031	-218
4.032	-223
4.033	-227
4.034	-232
4.035	-236
4.036	-241
4.037	-245
4.038	-239
4.039	-233
4.04	-226
4.041	-220
4.042	-216
4.043	-211
4.044	-207
4.045	-206
4.046	-205
4.047	-203
4.048	-208
4.049	-215
4.05	-223
4.051	-231
4.052	-238
4.053	-244
4.054	-251
4.055	-250
4.056	-246
4.057	-241
4.058	-237
4.059	-234
4.06	-230
4.061	-227
4.062	-230
4.063	-234
4.064	-239
4.065	-243
4.066	-246
4.067	-250
4.068	-253
4.069	-259
4.07	-266
4.071	-273
4.072	-273
4.073	-267
4.074	-260
4.075	-253
4.076	-256
4.077	-258
4.078	-260
4.079	-264
4.08	-268
4.081	-273
4.082	-277
4.083	-284
4.084	-291
4.085	-298
4.086	-304
4.087	-311
4.088	-318
4.089	-321
4.09	-315
4.091	-308
4.092	-301
4.093	-298
4.094	-296
4.095	-293
4.096	-294
4.097	-299
4.098	-305
4.099	-311
4.1	-317
4.101	-324
4.102	-331
4.103	-338
4.104	-346
4.105	-354
4.106	-361
4.107	-362
4.108	-362
4.109	-362
4.11	-360
4.111	-356
4.112	-353
4.113	-350
4.114	-354
4.115	-357
4.116	-360
4.117	-365
4.118	-371
4.119	-376
4.12	-381
4.121	-384
4.122	-386
4.123	-388
4.124	-387
4.125	-385
4.126	-382
4.127	-380
4.128	-376
4.129	-373
4.13	-370
4.131	-371
4.132	-374
4.133	-376
4.134	-377
4.135	-375
4.136	-374
4.137	-373
4.138	-373
4.139	-373
4.14	-373
4.141	-370
4.142	-363
4.143	-356
4.144	-349
4.145	-343
4.146	-336
4.147	-329
4.148	-326
4.149	-325
4.15	-324
4.151	-323
4.152	-323
4.153	-323
4.154	-323
4.155	-322
4.156	-321
4.157	-320
4.158	-316
4.159	-307
4.16	-298
4.161	-289
4.162	-279
4.163	-267
4.164	-256
4.165	-249
4.166	-249
4.167	-249
4.168	-249
4.169	-249
4.17	-249
4.171	-249
4.172	-249
4.173	-249
4.174	-249
4.175	-249
4.176	-241
4.177	-233
4.178	-225
4.179	-219
4.18	-213
4.181	-208
4.182	-203
4.183	-204
4.184	-205
4.185	-206
4.186	-207
4.187	-207
4.188	-207
4.189	-208
4.19	-213
4.191	-217
4.192	-221
4.193	-217
4.194	-210
4.195	-203
4.196	-197
4.197	-193
4.198	-188
4.199	-184
4.2	-189
4.201	-194
4.202	-200
4.203	-202
4.204	-200
4.205	-197
4.206	-195
4.207	-198
4.208	-200
4.209	-202
4.21	-200
4.211	-194
4.212	-188
4.213	-183
4.214	-180
4.215	-176
4.216	-173
4.217	-172
4.218	-172
4.219	-172
4.22	-173
4.221	-178
4.222	-182
4.223	-187
4.224	-190
4.225	-194
4.226	-197
4.227	-197
4.228	-191
4.229	-186
4.23	-180
4.231	-178
4.232	-175
4.233	-173
4.234	-174
4.235	-179
4.236	-183
4.237	-188
4.238	-193
4.239	-199
4.24	-204
4.241	-206
4.242	-203
4.243	-201
4.244	-199
4.245	-197
4.246	-194
4.247	-192
4.248	-188
4.249	-184
4.25	-179
4.251	-177
4.252	-181
4.253	-186
4.254	-190
4.255	-193
4.256	-195
4.257	-198
4.258	-200
4.259	-202
4.26	-204
4.261	-207
4.262	-204
4.263	-200
4.264	-197
4.265	-195
4.266	-194
4.267	-192
4.268	-191
4.269	-195
4.27	-198
4.271	-201
4.272	-206
4.273	-212
4.274	-217
4.275	-222
4.276	-221
4.277	-220
4.278	-219
4.279	-213
4.28	-205
4.281	-198
4.282	-191
4.283	-190
4.284	-189
4.285	-188
4.286	-191
4.287	-195
4.288	-200
4.289	-204
4.29	-209
4.291	-213
4.292	-218
4.293	-216
4.294	-214
4.295	-212
4.296	-210
4.297	-207
4.298	-205
4.299	-203
4.3	-201
4.301	-198
4.302	-196
4.303	-197
4.304	-200
4.305	-204
4.306	-207
4.307	-212
4.308	-216
4.309	-221
4.31	-222
4.311	-222
4.312	-222
4.313	-222
4.314	-218
4.315	-215
4.316	-212
4.317	-207
4.318	-203
4.319	-198
4.32	-197
4.321	-201
4.322	-206
4.323	-210
4.324	-212
4.325	-213
4.326	-214
4.327	-215
4.328	-215
4.329	-215
4.33	-215
4.331	-212
4.332	-210
4.333	-208
4.334	-205
4.335	-202
4.336	-198
4.337	-195
4.338	-199
4.339	-202
4.34	-206
4.341	-208
4.342	-210
4.343	-213
4.344	-214
4.345	-209
4.346	-205
4.347	-200
4.348	-197
4.349	-195
4.35	-193
4.351	-191
4.352	-188
4.353	-186
4.354	-184
4.355	-187
4.356	-192
4.357	-196
4.358	-200
4.359	-202
4.36	-204
4.361	-207
4.362	-207
4.363	-207
4.364	-207
4.365	-205
4.366	-200
4.367	-196
4.368	-191
4.369	-189
4.37	-187
4.371	-184
4.372	-186
4.373	-189
4.374	-192
4.375	-196
4.376	-198
4.377	-200
4.378	-202
4.379	-201
4.38	-199
4.381	-197
4.382	-195
4.383	-195
4.384	-195
4.385	-195
4.386	-192
4.387	-189
4.388	-186
4.389	-184
4.39	-187
4.391	-189
4.392	-191
4.393	-195
4.394	-200
4.395	-204
4.396	-205
4.397	-202
4.398	-198
4.399	-195
4.4	-194
4.401	-193
4.402	-192
4.403	-190
4.404	-188
4.405	-186
4.406	-184
4.407	-187
4.408	-191
4.409	-194
4.41	-197
4.411	-199
4.412	-201
4.413	-202
4.414	-197
4.415	-193
4.416	-188
4.417	-187
4.418	-187
4.419	-187
4.42	-186
4.421	-181
4.422	-177
4.423	-172
4.424	-177
4.425	-183
4.426	-188
4.427	-192
4.428	-195
4.429	-197
4.43	-199
4.431	-198
4.432	-197
4.433	-196
4.434	-195
4.435	-195
4.436	-195
4.437	-195
4.438	-191
4.439	-188
4.44	-185
4.441	-186
4.442	-189
4.443	-193
4.444	-196
4.445	-199
4.446	-203
4.447	-206
4.448	-205
4.449	-203
4.45	-201
4.451	-197
4.452	-189
4.453	-181
4.454	-173
4.455	-175
4.456	-178
4.457	-182
4.458	-186
4.459	-193
4.46	-200
4.461	-207
4.462	-206
4.463	-205
4.464	-203
4.465	-202
4.466	-199
4.467	-197
4.468	-195
4.469	-189
4.47	-183
4.471	-178
4.472	-176
4.473	-176
4.474	-176
4.475	-177
4.476	-184
4.477	-191
4.478	-197
4.479	-199
4.48	-199
4.481	-199
4.482	-198
4.483	-193
4.484	-189
4.485	-184
4.486	-185
4.487	-186
4.488	-187
4.489	-186
4.49	-183
4.491	-179
4.492	-176
4.493	-181
4.494	-187
4.495	-192
4.496	-196
4.497	-199
4.498	-201
4.499	-203
4.5	-201
4.501	-198
4.502	-196
4.503	-194
4.504	-192
4.505	-189
4.506	-187
4.507	-185
4.508	-183
4.509	-180
4.51	-185
4.511	-193
4.512	-201
4.513	-207
4.514	-208
4.515	-209
4.516	-210
4.517	-209
4.518	-207
4.519	-204
4.52	-202
4.521	-200
4.522	-198
4.523	-195
4.524	-192
4.525	-189
4.526	-185
4.527	-187
4.528	-195
4.529	-203
4.53	-211
4.531	-208
4.532	-206
4.533	-204
4.534	-200
4.535	-196
4.536	-191
4.537	-187
4.538	-185
4.539	-183
4.54	-180
4.541	-181
4.542	-182
4.543	-183
4.544	-185
4.545	-189
4.546	-194
4.547	-198
4.548	-201
4.549	-203
4.55	-205
4.551	-205
4.552	-199
4.553	-194
4.554	-188
4.555	-183
4.556	-179
4.557	-174
4.558	-173
4.559	-175
4.56	-178
4.561	-180
4.562	-190
4.563	-200
4.564	-210
4.565	-218
4.566	-225
4.567	-232
4.568	-237
4.569	-231
4.57	-226
4.571	-220
4.572	-215
4.573	-209
4.574	-203
4.575	-200
4.576	-203
4.577	-207
4.578	-210
4.579	-215
4.58	-221
4.581	-226
4.582	-232
4.583	-239
4.584	-246
4.585	-253
4.586	-245
4.587	-236
4.588	-227
4.589	-223
4.59	-226
4.591	-228
4.592	-230
4.593	-232
4.594	-235
4.595	-237
4.596	-242
4.597	-248
4.598	-255
4.599	-261
4.6	-264
4.601	-266
4.602	-268
4.603	-271
4.604	-274
4.605	-278
4.606	-281
4.607	-284
4.608	-288
4.609	-291
4.61	-295
4.611	-298
4.612	-301
4.613	-306
4.614	-314
4.615	-322
4.616	-330
4.617	-334
4.618	-337
4.619	-340
4.62	-340
4.621	-334
4.622	-329
4.623	-323
4.624	-317
4.625	-312
4.626	-306
4.627	-305
4.628	-309
4.629	-312
4.63	-315
4.631	-318
4.632	-320
4.633	-322
4.634	-324
4.635	-325
4.636	-326
4.637	-326
4.638	-324
4.639	-322
4.64	-320
4.641	-317
4.642	-315
4.643	-313
4.644	-311
4.645	-308
4.646	-306
4.647	-304
4.648	-307
4.649	-312
4.65	-316
4.651	-320
4.652	-324
4.653	-327
4.654	-331
4.655	-324
4.656	-317
4.657	-311
4.658	-306
4.659	-304
4.66	-302
4.661	-300
4.662	-298
4.663	-297
4.664	-296
4.665	-299
4.666	-303
4.667	-308
4.668	-312
4.669	-318
4.67	-324
4.671	-329
4.672	-326
4.673	-319
4.674	-312
4.675	-307
4.676	-306
4.677	-305
4.678	-304
4.679	-301
4.68	-297
4.681	-294
4.682	-295
4.683	-301
4.684	-308
4.685	-315
4.686	-313
4.687	-311
4.688	-309
4.689	-307
4.69	-306
4.691	-305
4.692	-303
4.693	-300
4.694	-297
4.695	-293
4.696	-293
4.697	-294
4.698	-295
4.699	-296
4.7	-295
4.701	-293
4.702	-292
4.703	-292
4.704	-292
4.705	-292
4.706	-291
4.707	-288
4.708	-284
4.709	-281
4.71	-276
4.711	-270
4.712	-264
4.713	-263
4.714	-267
4.715	-272
4.716	-276
4.717	-295
4.718	-316
4.719	-336
4.72	-359
4.721	-386
4.722	-413
4.723	-440
4.724	-463
4.725	-487
4.726	-510
4.727	-536
4.728	-564
4.729	-592
4.73	-622
4.731	-669
4.732	-711
4.733	-748
4.734	-771
4.735	-788
4.736	-803
4.737	-812
4.738	-806
4.739	-800
4.74	-794
4.741	-776
4.742	-752
4.743	-726
4.744	-694
4.745	-654
4.746	-612
4.747	-567
4.748	-520
4.749	-471
4.75	-422
4.751	-376
4.752	-332
4.753	-288
4.754	-246
4.755	-252
4.756	-259
4.757	-266
4.758	-269
4.759	-269
4.76	-269
4.761	-270
4.762	-276
4.763	-283
4.764	-290
4.765	-299
4.766	-309
4.767	-319
4.768	-328
4.769	-331
4.77	-334
4.771	-338
4.772	-337
4.773	-334
4.774	-332
4.775	-329
4.776	-326
4.777	-323
4.778	-319
4.779	-315
4.78	-311
4.781	-306
4.782	-305
4.783	-308
4.784	-312
4.785	-315
4.786	-317
4.787	-320
4.788	-322
4.789	-325
4.79	-328
4.791	-332
4.792	-334
4.793	-330
4.794	-325
4.795	-321
4.796	-316
4.797	-312
4.798	-307
4.799	-305
4.8	-309
4.801	-314
4.802	-318
4.803	-320
4.804	-321
4.805	-322
4.806	-324
4.807	-326
4.808	-328
4.809	-330
4.81	-326
4.811	-320
4.812	-314
4.813	-310
4.814	-308
4.815	-306
4.816	-304
4.817	-309
4.818	-315
4.819	-320
4.82	-325
4.821	-328
4.822	-331
4.823	-335
4.824	-339
4.825	-344
4.826	-348
4.827	-345
4.828	-337
4.829	-329
4.83	-323
4.831	-323
4.832	-323
4.833	-323
4.834	-326
4.835	-331
4.836	-335
4.837	-339
4.838	-343
4.839	-346
4.84	-350
4.841	-351
4.842	-352
4.843	-353
4.844	-351
4.845	-344
4.846	-338
4.847	-331
4.848	-331
4.849	-331
4.85	-331
4.851	-332
4.852	-336
4.853	-339
4.854	-343
4.855	-349
4.856	-356
4.857	-363
4.858	-365
4.859	-365
4.86	-365
4.861	-365
4.862	-365
4.863	-365
4.864	-365
4.865	-363
4.866	-360
4.867	-356
4.868	-354
4.869	-355
4.87	-356
4.871	-358
4.872	-358
4.873	-358
4.874	-358
4.875	-357
4.876	-355
4.877	-352
4.878	-350
4.879	-356
4.88	-363
4.881	-370
4.882	-371
4.883	-366
4.884	-362
4.885	-358
4.886	-366
4.887	-374
4.888	-382
4.889	-390
4.89	-397
4.891	-405
4.892	-412
4.893	-413
4.894	-414
4.895	-415
4.896	-417
4.897	-419
4.898	-422
4.899	-422
4.9	-419
4.901	-416
4.902	-412
4.903	-417
4.904	-424
4.905	-431
4.906	-438
4.907	-446
4.908	-453
4.909	-461
4.91	-458
4.911	-453
4.912	-449
4.913	-449
4.914	-455
4.915	-460
4.916	-466
4.917	-467
4.918	-468
4.919	-469
4.92	-469
4.921	-469
4.922	-469
4.923	-470
4.924	-476
4.925	-481
4.926	-487
4.927	-489
4.928	-489
4.929	-489
4.93	-488
4.931	-486
4.932	-484
4.933	-481
4.934	-478
4.935	-475
4.936	-472
4.937	-471
4.938	-474
4.939	-477
4.94	-481
4.941	-480
4.942	-479
4.943	-478
4.944	-476
4.945	-472
4.946	-469
4.947	-465
4.948	-460
4.949	-454
4.95	-449
4.951	-441
4.952	-431
4.953	-421
4.954	-412
4.955	-411
4.956	-409
4.957	-408
4.958	-406
4.959	-404
4.96	-402
4.961	-398
4.962	-388
4.963	-378
4.964	-368
4.965	-361
4.966	-355
4.967	-350
4.968	-343
4.969	-334
4.97	-325
4.971	-316
4.972	-314
4.973	-313
4.974	-312
4.975	-312
4.976	-315
4.977	-317
4.978	-319
4.979	-313
4.98	-308
4.981	-302
4.982	-294
4.983	-284
4.984	-274
4.985	-264
4.986	-260
4.987	-255
4.988	-251
4.989	-250
4.99	-251
4.991	-252
4.992	-253
4.993	-253
4.994	-253
4.995	-253
4.996	-252
4.997	-251
4.998	-250
4.999	-246
5	-235
5.001	-223
5.002	-212
5.003	-214
5.004	-217
5.005	-220
5.006	-223
5.007	-225
5.008	-228
5.009	-230
5.01	-233
5.011	-237
5.012	-240
5.013	-239
5.014	-233
5.015	-227
5.016	-222
5.017	-216
5.018	-211
5.019	-205
5.02	-204
5.021	-207
5.022	-209
5.023	-211
5.024	-212
5.025	-213
5.026	-214
5.027	-217
5.028	-220
5.029	-224
5.03	-225
5.031	-220
5.032	-216
5.033	-211
5.034	-209
5.035	-207
5.036	-204
5.037	-202
5.038	-200
5.039	-198
5.04	-195
5.041	-202
5.042	-208
5.043	-215
5.044	-218
5.045	-217
5.046	-216
5.047	-214
5.048	-209
5.049	-203
5.05	-197
5.051	-193
5.052	-190
5.053	-186
5.054	-184
5.055	-184
5.056	-184
5.057	-184
5.058	-189
5.059	-197
5.06	-205
5.061	-211
5.062	-214
5.063	-216
5.064	-218
5.065	-213
5.066	-206
5.067	-199
5.068	-192
5.069	-184
5.07	-177
5.071	-169
5.072	-173
5.073	-179
5.074	-185
5.075	-190
5.076	-194
5.077	-199
5.078	-203
5.079	-206
5.08	-210
5.081	-213
5.082	-211
5.083	-206
5.084	-200
5.085	-195
5.086	-194
5.087	-193
5.088	-192
5.089	-192
5.09	-193
5.091	-194
5.092	-196
5.093	-201
5.094	-205
5.095	-210
5.096	-212
5.097	-215
5.098	-217
5.099	-217
5.1	-212
5.101	-208
5.102	-203
5.103	-200
5.104	-197
5.105	-193
5.106	-192
5.107	-193
5.108	-194
5.109	-195
5.11	-200
5.111	-204
5.112	-209
5.113	-211
5.114	-212
5.115	-214
5.116	-214
5.117	-210
5.118	-205
5.119	-201
5.12	-199
5.121	-199
5.122	-199
5.123	-200
5.124	-202
5.125	-204
5.126	-206
5.127	-206
5.128	-205
5.129	-204
5.13	-202
5.131	-200
5.132	-198
5.133	-195
5.134	-187
5.135	-178
5.136	-169
5.137	-164
5.138	-164
5.139	-164
5.14	-164
5.141	-168
5.142	-171
5.143	-174
5.144	-179
5.145	-186
5.146	-193
5.147	-199
5.148	-199
5.149	-199
5.15	-199
5.151	-196
5.152	-192
5.153	-187
5.154	-183
5.155	-180
5.156	-176
5.157	-173
5.158	-174
5.159	-176
5.16	-178
5.161	-181
5.162	-187
5.163	-193
5.164	-198
5.165	-199
5.166	-199
5.167	-199
5.168	-197
5.169	-191
5.17	-186
5.171	-180
5.172	-176
5.173	-173
5.174	-170
5.175	-169
5.176	-172
5.177	-174
5.178	-176
5.179	-177
5.18	-178
5.181	-179
5.182	-182
5.183	-185
5.184	-189
5.185	-190
5.186	-183
5.187	-177
5.188	-170
5.189	-169
5.19	-170
5.191	-171
5.192	-171
5.193	-169
5.194	-167
5.195	-165
5.196	-166
5.197	-168
5.198	-171
5.199	-172
5.2	-174
5.201	-175
5.202	-176
5.203	-172
5.204	-167
5.205	-163
5.206	-159
5.207	-155
5.208	-152
5.209	-149
5.21	-153
5.211	-158
5.212	-162
5.213	-165
5.214	-166
5.215	-167
5.216	-168
5.217	-171
5.218	-173
5.219	-175
5.22	-176
5.221	-176
5.222	-176
5.223	-174
5.224	-166
5.225	-158
5.226	-150
5.227	-150
5.228	-151
5.229	-152
5.23	-154
5.231	-159
5.232	-163
5.233	-168
5.234	-170
5.235	-172
5.236	-175
5.237	-174
5.238	-171
5.239	-167
5.24	-164
5.241	-160
5.242	-155
5.243	-151
5.244	-149
5.245	-151
5.246	-152
5.247	-153
5.248	-156
5.249	-160
5.25	-163
5.251	-167
5.252	-170
5.253	-173
5.254	-175
5.255	-170
5.256	-166
5.257	-161
5.258	-159
5.259	-158
5.26	-157
5.261	-156
5.262	-155
5.263	-154
5.264	-153
5.265	-155
5.266	-157
5.267	-159
5.268	-161
5.269	-162
5.27	-163
5.271	-164
5.272	-161
5.273	-157
5.274	-154
5.275	-151
5.276	-149
5.277	-147
5.278	-146
5.279	-154
5.28	-162
5.281	-169
5.282	-173
5.283	-174
5.284	-175
5.285	-175
5.286	-172
5.287	-168
5.288	-165
5.289	-159
5.29	-152
5.291	-146
5.292	-141
5.293	-141
5.294	-141
5.295	-141
5.296	-148
5.297	-156
5.298	-164
5.299	-167
5.3	-163
5.301	-160
5.302	-157
5.303	-162
5.304	-168
5.305	-173
5.306	-172
5.307	-165
5.308	-159
5.309	-153
5.31	-154
5.311	-155
5.312	-156
5.313	-157
5.314	-158
5.315	-159
5.316	-161
5.317	-164
5.318	-168
5.319	-171
5.32	-172
5.321	-172
5.322	-172
5.323	-170
5.324	-165
5.325	-159
5.326	-153
5.327	-152
5.328	-151
5.329	-149
5.33	-152
5.331	-161
5.332	-170
5.333	-179
5.334	-182
5.335	-184
5.336	-186
5.337	-190
5.338	-194
5.339	-199
5.34	-202
5.341	-194
5.342	-187
5.343	-179
5.344	-176
5.345	-176
5.346	-176
5.347	-176
5.348	-176
5.349	-176
5.35	-176
5.351	-177
5.352	-180
5.353	-182
5.354	-185
5.355	-191
5.356	-196
5.357	-202
5.358	-199
5.359	-195
5.36	-190
5.361	-187
5.362	-187
5.363	-187
5.364	-187
5.365	-191
5.366	-194
5.367	-197
5.368	-200
5.369	-202
5.37	-205
5.371	-207
5.372	-208
5.373	-209
5.374	-210
5.375	-209
5.376	-205
5.377	-202
5.378	-199
5.379	-195
5.38	-192
5.381	-188
5.382	-191
5.383	-195
5.384	-200
5.385	-203
5.386	-202
5.387	-200
5.388	-199
5.389	-194
5.39	-189
5.391	-183
5.392	-178
5.393	-174
5.394	-169
5.395	-165
5.396	-160
5.397	-156
5.398	-151
5.399	-149
5.4	-150
5.401	-152
5.402	-153
5.403	-154
5.404	-155
5.405	-156
5.406	-155
5.407	-153
5.408	-151
5.409	-149
5.41	-150
5.411	-151
5.412	-152
5.413	-149
5.414	-145
5.415	-141
5.416	-139
5.417	-146
5.418	-152
5.419	-159
5.42	-161
5.421	-162
5.422	-164
5.423	-163
5.424	-160
5.425	-156
5.426	-153
5.427	-152
5.428	-150
5.429	-149
5.43	-147
5.431	-142
5.432	-138
5.433	-133
5.434	-138
5.435	-142
5.436	-147
5.437	-149
5.438	-149
5.439	-149
5.44	-148
5.441	-146
5.442	-144
5.443	-142
5.444	-140
5.445	-139
5.446	-138
5.447	-137
5.448	-136
5.449	-135
5.45	-134
5.451	-138
5.452	-143
5.453	-149
5.454	-153
5.455	-156
5.456	-158
5.457	-160
5.458	-157
5.459	-154
5.46	-151
5.461	-147
5.462	-142
5.463	-138
5.464	-133
5.465	-133
5.466	-133
5.467	-133
5.468	-132
5.469	-130
5.47	-128
5.471	-126
5.472	-129
5.473	-133
5.474	-136
5.475	-133
5.476	-126
5.477	-119
5.478	-113
5.479	-110
5.48	-107
5.481	-103
5.482	-111
5.483	-122
5.484	-133
5.485	-150
5.486	-176
5.487	-203
5.488	-230
5.489	-255
5.49	-280
5.491	-305
5.492	-332
5.493	-364
5.494	-395
5.495	-426
5.496	-468
5.497	-511
5.498	-552
5.499	-585
5.5	-610
5.501	-635
5.502	-656
5.503	-650
5.504	-644
5.505	-638
5.506	-622
5.507	-599
5.508	-576
5.509	-550
5.51	-515
5.511	-480
5.512	-444
5.513	-391
5.514	-331
5.515	-272
5.516	-218
5.517	-176
5.518	-135
5.519	-93
5.52	-83
5.521	-79
5.522	-75
5.523	-74
5.524	-85
5.525	-95
5.526	-106
5.527	-112
5.528	-116
5.529	-119
5.53	-124
5.531	-134
5.532	-144
5.533	-154
5.534	-159
5.535	-162
5.536	-166
5.537	-169
5.538	-171
5.539	-173
5.54	-176
5.541	-176
5.542	-176
5.543	-176
5.544	-175
5.545	-173
5.546	-170
5.547	-168
5.548	-163
5.549	-157
5.55	-151
5.551	-149
5.552	-149
5.553	-149
5.554	-149
5.555	-154
5.556	-158
5.557	-163
5.558	-167
5.559	-172
5.56	-176
5.561	-179
5.562	-174
5.563	-170
5.564	-165
5.565	-165
5.566	-166
5.567	-167
5.568	-168
5.569	-168
5.57	-168
5.571	-168
5.572	-171
5.573	-174
5.574	-178
5.575	-181
5.576	-183
5.577	-185
5.578	-187
5.579	-186
5.58	-185
5.581	-184
5.582	-181
5.583	-175
5.584	-170
5.585	-164
5.586	-165
5.587	-167
5.588	-168
5.589	-172
5.59	-179
5.591	-186
5.592	-192
5.593	-199
5.594	-206
5.595	-213
5.596	-208
5.597	-199
5.598	-190
5.599	-183
5.6	-182
5.601	-181
5.602	-180
5.603	-181
5.604	-182
5.605	-183
5.606	-185
5.607	-188
5.608	-192
5.609	-195
5.61	-198
5.611	-202
5.612	-205
5.613	-206
5.614	-203
5.615	-201
5.616	-199
5.617	-198
5.618	-197
5.619	-196
5.62	-197
5.621	-201
5.622	-204
5.623	-207
5.624	-209
5.625	-212
5.626	-214
5.627	-216
5.628	-218
5.629	-221
5.63	-221
5.631	-218
5.632	-215
5.633	-211
5.634	-211
5.635	-211
5.636	-211
5.637	-211
5.638	-211
5.639	-211
5.64	-211
5.641	-222
5.642	-234
5.643	-247
5.644	-253
5.645	-253
5.646	-253
5.647	-253
5.648	-252
5.649	-251
5.65	-250
5.651	-249
5.652	-248
5.653	-246
5.654	-246
5.655	-248
5.656	-250
5.657	-253
5.658	-253
5.659	-253
5.66	-253
5.661	-255
5.662	-263
5.663	-271
5.664	-279
5.665	-280
5.666	-280
5.667	-280
5.668	-281
5.669	-282
5.67	-283
5.671	-284
5.672	-292
5.673	-301
5.674	-310
5.675	-317
5.676	-320
5.677	-323
5.678	-327
5.679	-329
5.68	-331
5.681	-334
5.682	-333
5.683	-331
5.684	-329
5.685	-327
5.686	-327
5.687	-327
5.688	-327
5.689	-328
5.69	-331
5.691	-333
5.692	-335
5.693	-336
5.694	-337
5.695	-338
5.696	-342
5.697	-346
5.698	-351
5.699	-352
5.7	-348
5.701	-343
5.702	-339
5.703	-335
5.704	-332
5.705	-329
5.706	-328
5.707	-332
5.708	-335
5.709	-338
5.71	-340
5.711	-341
5.712	-342
5.713	-342
5.714	-341
5.715	-339
5.716	-337
5.717	-327
5.718	-317
5.719	-307
5.72	-301
5.721	-296
5.722	-292
5.723	-288
5.724	-285
5.725	-283
5.726	-281
5.727	-276
5.728	-271
5.729	-265
5.73	-261
5.731	-261
5.732	-261
5.733	-261
5.734	-252
5.735	-242
5.736	-232
5.737	-225
5.738	-221
5.739	-218
5.74	-215
5.741	-215
5.742	-215
5.743	-215
5.744	-215
5.745	-215
5.746	-215
5.747	-214
5.748	-212
5.749	-210
5.75	-208
5.751	-202
5.752	-194
5.753	-186
5.754	-179
5.755	-178
5.756	-177
5.757	-176
5.758	-178
5.759	-182
5.76	-185
5.761	-187
5.762	-187
5.763	-187
5.764	-187
5.765	-186
5.766	-183
5.767	-181
5.768	-176
5.769	-167
5.77	-158
5.771	-149
5.772	-150
5.773	-151
5.774	-152
5.775	-153
5.776	-154
5.777	-155
5.778	-157
5.779	-160
5.78	-163
5.781	-167
5.782	-172
5.783	-179
5.784	-186
5.785	-190
5.786	-181
5.787	-172
5.788	-163
5.789	-158
5.79	-155
5.791	-151
5.792	-150
5.793	-153
5.794	-156
5.795	-160
5.796	-160
5.797	-160
5.798	-160
5.799	-161
5.8	-163
5.801	-166
5.802	-168
5.803	-164
5.804	-159
5.805	-155
5.806	-152
5.807	-151
5.808	-150
5.809	-149
5.81	-155
5.811	-160
5.812	-166
5.813	-170
5.814	-173
5.815	-177
5.816	-179
5.817	-175
5.818	-170
5.819	-166
5.82	-163
5.821	-160
5.822	-158
5.823	-156
5.824	-152
5.825	-149
5.826	-146
5.827	-149
5.828	-155
5.829	-161
5.83	-165
5.831	-166
5.832	-167
5.833	-168
5.834	-167
5.835	-166
5.836	-165
5.837	-165
5.838	-166
5.839	-167
5.84	-168
5.841	-164
5.842	-159
5.843	-155
5.844	-158
5.845	-167
5.846	-176
5.847	-184
5.848	-184
5.849	-184
5.85	-184
5.851	-181
5.852	-178
5.853	-175
5.854	-171
5.855	-168
5.856	-164
5.857	-161
5.858	-159
5.859	-156
5.86	-154
5.861	-154
5.862	-159
5.863	-163
5.864	-168
5.865	-172
5.866	-177
5.867	-181
5.868	-183
5.869	-182
5.87	-181
5.871	-180
5.872	-172
5.873	-164
5.874	-156
5.875	-154
5.876	-156
5.877	-158
5.878	-160
5.879	-162
5.88	-163
5.881	-164
5.882	-167
5.883	-172
5.884	-176
5.885	-180
5.886	-182
5.887	-185
5.888	-187
5.889	-183
5.89	-178
5.891	-172
5.892	-166
5.893	-161
5.894	-155
5.895	-150
5.896	-153
5.897	-157
5.898	-162
5.899	-167
5.9	-174
5.901	-181
5.902	-187
5.903	-187
5.904	-187
5.905	-187
5.906	-181
5.907	-169
5.908	-156
5.909	-145
5.91	-150
5.911	-154
5.912	-159
5.913	-162
5.914	-166
5.915	-169
5.916	-172
5.917	-175
5.918	-177
5.919	-179
5.92	-178
5.921	-176
5.922	-174
5.923	-170
5.924	-163
5.925	-157
5.926	-150
5.927	-149
5.928	-149
5.929	-149
5.93	-152
5.931	-160
5.932	-168
5.933	-175
5.934	-174
5.935	-171
5.936	-169
5.937	-168
5.938	-166
5.939	-165
5.94	-164
5.941	-159
5.942	-155
5.943	-151
5.944	-148
5.945	-147
5.946	-146
5.947	-146
5.948	-151
5.949	-157
5.95	-163
5.951	-164
5.952	-164
5.953	-164
5.954	-164
5.955	-164
5.956	-164
5.957	-164
5.958	-159
5.959	-152
5.96	-145
5.961	-143
5.962	-149
5.963	-154
5.964	-160
5.965	-158
5.966	-156
5.967	-154
5.968	-156
5.969	-163
5.97	-169
5.971	-176
5.972	-172
5.973	-169
5.974	-166
5.975	-160
5.976	-152
5.977	-144
5.978	-137
5.979	-138
5.98	-140
5.981	-141
5.982	-143
5.983	-147
5.984	-150
5.985	-153
5.986	-157
5.987	-160
5.988	-164
5.989	-162
5.99	-160
5.991	-158
5.992	-155
5.993	-152
5.994	-149
5.995	-145
5.996	-145
5.997	-145
5.998	-145
5.999	-147
6	-153
6.001	-159
6.002	-164
6.003	-165
6.004	-166
6.005	-168
6.006	-166
6.007	-163
6.008	-159
6.009	-156
6.01	-154
6.011	-152
6.012	-149
6.013	-146
6.014	-141
6.015	-137
6.016	-134
6.017	-137
6.018	-141
6.019	-144
6.02	-148
6.021	-151
6.022	-154
6.023	-156
6.024	-153
6.025	-151
6.026	-149
6.027	-146
6.028	-142
6.029	-139
6.03	-138
6.031	-139
6.032	-140
6.033	-141
6.034	-145
6.035	-150
6.036	-154
6.037	-158
6.038	-160
6.039	-162
6.04	-164
6.041	-162
6.042	-160
6.043	-157
6.044	-155
6.045	-153
6.046	-151
6.047	-147
6.048	-141
6.049	-134
6.05	-127
6.051	-133
6.052	-143
6.053	-153
6.054	-161
6.055	-162
6.056	-163
6.057	-164
6.058	-161
6.059	-158
6.06	-155
6.061	-152
6.062	-149
6.063	-147
6.064	-145
6.065	-140
6.066	-136
6.067	-132
6.068	-132
6.069	-138
6.07	-144
6.071	-149
6.072	-152
6.073	-156
6.074	-159
6.075	-160
6.076	-159
6.077	-157
6.078	-157
6.079	-158
6.08	-159
6.081	-160
6.082	-160
6.083	-158
6.084	-157
6.085	-158
6.086	-164
6.087	-169
6.088	-175
6.089	-179
6.09	-182
6.091	-185
6.092	-186
6.093	-183
6.094	-179
6.095	-176
6.096	-172
6.097	-167
6.098	-163
6.099	-160
6.1	-159
6.101	-158
6.102	-157
6.103	-170
6.104	-182
6.105	-194
6.106	-200
6.107	-201
6.108	-202
6.109	-202
6.11	-198
6.111	-193
6.112	-189
6.113	-189
6.114	-191
6.115	-194
6.116	-195
6.117	-195
6.118	-195
6.119	-195
6.12	-198
6.121	-201
6.122	-205
6.123	-208
6.124	-210
6.125	-212
6.126	-214
6.127	-208
6.128	-201
6.129	-195
6.13	-191
6.131	-190
6.132	-189
6.133	-187
6.134	-185
6.135	-183
6.136	-181
6.137	-180
6.138	-180
6.139	-180
6.14	-180
6.141	-181
6.142	-182
6.143	-183
6.144	-180
6.145	-174
6.146	-168
6.147	-163
6.148	-159
6.149	-154
6.15	-150
6.151	-150
6.152	-151
6.153	-152
6.154	-152
6.155	-151
6.156	-150
6.157	-149
6.158	-152
6.159	-155
6.16	-159
6.161	-159
6.162	-155
6.163	-152
6.164	-149
6.165	-143
6.166	-137
6.167	-132
6.168	-131
6.169	-133
6.17	-135
6.171	-138
6.172	-141
6.173	-144
6.174	-148
6.175	-152
6.176	-156
6.177	-161
6.178	-163
6.179	-157
6.18	-152
6.181	-146
6.182	-145
6.183	-145
6.184	-145
6.185	-144
6.186	-142
6.187	-140
6.188	-137
6.189	-140
6.19	-144
6.191	-147
6.192	-148
6.193	-147
6.194	-146
6.195	-145
6.196	-147
6.197	-149
6.198	-152
6.199	-150
6.2	-146
6.201	-141
6.202	-137
6.203	-136
6.204	-135
6.205	-134
6.206	-138
6.207	-144
6.208	-151
6.209	-156
6.21	-155
6.211	-154
6.212	-153
6.213	-148
6.214	-143
6.215	-137
6.216	-131
6.217	-126
6.218	-120
6.219	-115
6.22	-117
6.221	-120
6.222	-124
6.223	-123
6.224	-118
6.225	-112
6.226	-106
6.227	-114
6.228	-122
6.229	-130
6.23	-140
6.231	-152
6.232	-165
6.233	-177
6.234	-195
6.235	-213
6.236	-231
6.237	-251
6.238	-273
6.239	-294
6.24	-318
6.241	-350
6.242	-383
6.243	-415
6.244	-453
6.245	-491
6.246	-530
6.247	-561
6.248	-576
6.249	-591
6.25	-606
6.251	-592
6.252	-572
6.253	-553
6.254	-532
6.255	-508
6.256	-483
6.257	-459
6.258	-434
6.259	-410
6.26	-385
6.261	-350
6.262	-305
6.263	-260
6.264	-215
6.265	-171
6.266	-128
6.267	-84
6.268	-70
6.269	-73
6.27	-76
6.271	-79
6.272	-91
6.273	-103
6.274	-115
6.275	-126
6.276	-135
6.277	-144
6.278	-153
6.279	-158
6.28	-164
6.281	-170
6.282	-171
6.283	-168
6.284	-166
6.285	-163
6.286	-157
6.287	-150
6.288	-143
6.289	-142
6.29	-143
6.291	-144
6.292	-146
6.293	-152
6.294	-157
6.295	-163
6.296	-168
6.297	-172
6.298	-177
6.299	-178
6.3	-172
6.301	-167
6.302	-161
6.303	-155
6.304	-150
6.305	-144
6.306	-142
6.307	-143
6.308	-144
6.309	-145
6.31	-149
6.311	-154
6.312	-158
6.313	-162
6.314	-166
6.315	-169
6.316	-172
6.317	-168
6.318	-165
6.319	-161
6.32	-161
6.321	-162
6.322	-163
6.323	-164
6.324	-166
6.325	-167
6.326	-168
6.327	-169
6.328	-170
6.329	-171
6.33	-173
6.331	-175
6.332	-177
6.333	-179
6.334	-180
6.335	-180
6.336	-180
6.337	-177
6.338	-172
6.339	-166
6.34	-161
6.341	-167
6.342	-174
6.343	-180
6.344	-184
6.345	-185
6.346	-186
6.347	-188
6.348	-189
6.349	-190
6.35	-191
6.351	-196
6.352	-204
6.353	-212
6.354	-220
6.355	-225
6.356	-231
6.357	-236
6.358	-245
6.359	-254
6.36	-263
6.361	-271
6.362	-279
6.363	-287
6.364	-295
6.365	-298
6.366	-300
6.367	-302
6.368	-305
6.369	-307
6.37	-309
6.371	-311
6.372	-308
6.373	-305
6.374	-301
6.375	-302
6.376	-307
6.377	-311
6.378	-316
6.379	-324
6.38	-332
6.381	-339
6.382	-341
6.383	-339
6.384	-336
6.385	-335
6.386	-336
6.387	-337
6.388	-338
6.389	-339
6.39	-340
6.391	-341
6.392	-345
6.393	-355
6.394	-366
6.395	-376
6.396	-376
6.397	-375
6.398	-374
6.399	-375
6.4	-378
6.401	-381
6.402	-385
6.403	-384
6.404	-383
6.405	-381
6.406	-381
6.407	-381
6.408	-381
6.409	-381
6.41	-388
6.411	-395
6.412	-402
6.413	-405
6.414	-406
6.415	-407
6.416	-409
6.417	-417
6.418	-425
6.419	-433
6.42	-436
6.421	-437
6.422	-438
6.423	-439
6.424	-439
6.425	-439
6.426	-439
6.427	-443
6.428	-449
6.429	-455
6.43	-460
6.431	-464
6.432	-469
6.433	-473
6.434	-471
6.435	-469
6.436	-467
6.437	-463
6.438	-457
6.439	-452
6.44	-447
6.441	-449
6.442	-451
6.443	-453
6.444	-456
6.445	-459
6.446	-463
6.447	-465
6.448	-464
6.449	-463
6.45	-462
6.451	-464
6.452	-467
6.453	-471
6.454	-472
6.455	-466
6.456	-461
6.457	-455
6.458	-452
6.459	-450
6.46	-448
6.461	-446
6.462	-446
6.463	-446
6.464	-446
6.465	-445
6.466	-444
6.467	-443
6.468	-440
6.469	-434
6.47	-429
6.471	-423
6.472	-420
6.473	-417
6.474	-413
6.475	-406
6.476	-396
6.477	-386
6.478	-377
6.479	-374
6.48	-372
6.481	-370
6.482	-372
6.483	-375
6.484	-378
6.485	-379
6.486	-370
6.487	-361
6.488	-352
6.489	-345
6.49	-338
6.491	-331
6.492	-326
6.493	-325
6.494	-324
6.495	-323
6.496	-321
6.497	-319
6.498	-316
6.499	-316
6.5	-318
6.501	-321
6.502	-323
6.503	-317
6.504	-312
6.505	-306
6.506	-301
6.507	-297
6.508	-292
6.509	-288
6.51	-287
6.511	-286
6.512	-285
6.513	-287
6.514	-290
6.515	-293
6.516	-295
6.517	-293
6.518	-291
6.519	-289
6.52	-287
6.521	-286
6.522	-285
6.523	-282
6.524	-277
6.525	-271
6.526	-265
6.527	-262
6.528	-259
6.529	-255
6.53	-256
6.531	-263
6.532	-270
6.533	-276
6.534	-281
6.535	-285
6.536	-290
6.537	-290
6.538	-285
6.539	-281
6.54	-276
6.541	-274
6.542	-272
6.543	-270
6.544	-268
6.545	-267
6.546	-266
6.547	-266
6.548	-269
6.549	-272
6.55	-276
6.551	-282
6.552	-288
6.553	-295
6.554	-297
6.555	-289
6.556	-282
6.557	-274
6.558	-270
6.559	-266
6.56	-263
6.561	-260
6.562	-258
6.563	-256
6.564	-253
6.565	-260
6.566	-267
6.567	-273
6.568	-278
6.569	-280
6.57	-282
6.571	-284
6.572	-278
6.573	-273
6.574	-267
6.575	-263
6.576	-261
6.577	-259
6.578	-257
6.579	-258
6.58	-260
6.581	-261
6.582	-264
6.583	-269
6.584	-273
6.585	-277
6.586	-281
6.587	-284
6.588	-288
6.589	-284
6.59	-280
6.591	-275
6.592	-270
6.593	-265
6.594	-259
6.595	-254
6.596	-251
6.597	-249
6.598	-247
6.599	-248
6.6	-252
6.601	-257
6.602	-261
6.603	-266
6.604	-270
6.605	-275
6.606	-273
6.607	-267
6.608	-262
6.609	-256
6.61	-252
6.611	-247
6.612	-243
6.613	-242
6.614	-244
6.615	-245
6.616	-247
6.617	-253
6.618	-258
6.619	-264
6.62	-265
6.621	-265
6.622	-265
6.623	-263
6.624	-259
6.625	-254
6.626	-250
6.627	-246
6.628	-243
6.629	-240
6.63	-237
6.631	-236
6.632	-235
6.633	-234
6.634	-239
6.635	-243
6.636	-248
6.637	-251
6.638	-253
6.639	-255
6.64	-256
6.641	-252
6.642	-247
6.643	-243
6.644	-242
6.645	-244
6.646	-245
6.647	-245
6.648	-241
6.649	-238
6.65	-235
6.651	-237
6.652	-240
6.653	-243
6.654	-245
6.655	-242
6.656	-240
6.657	-238
6.658	-235
6.659	-231
6.66	-228
6.661	-223
6.662	-216
6.663	-210
6.664	-203
6.665	-206
6.666	-210
6.667	-213
6.668	-218
6.669	-223
6.67	-229
6.671	-233
6.672	-228
6.673	-222
6.674	-216
6.675	-218
6.676	-222
6.677	-227
6.678	-229
6.679	-225
6.68	-220
6.681	-216
6.682	-213
6.683	-211
6.684	-208
6.685	-209
6.686	-216
6.687	-223
6.688	-229
6.689	-228
6.69	-226
6.691	-224
6.692	-220
6.693	-216
6.694	-211
6.695	-207
6.696	-206
6.697	-205
6.698	-203
6.699	-206
6.7	-212
6.701	-217
6.702	-222
6.703	-221
6.704	-220
6.705	-219
6.706	-224
6.707	-233
6.708	-242
6.709	-247
6.71	-234
6.711	-222
6.712	-210
6.713	-205
6.714	-203
6.715	-201
6.716	-199
6.717	-199
6.718	-199
6.719	-199
6.72	-199
6.721	-199
6.722	-199
6.723	-201
6.724	-205
6.725	-210
6.726	-214
6.727	-210
6.728	-206
6.729	-201
6.73	-198
6.731	-196
6.732	-193
6.733	-192
6.734	-195
6.735	-198
6.736	-202
6.737	-203
6.738	-203
6.739	-203
6.74	-204
6.741	-207
6.742	-210
6.743	-214
6.744	-209
6.745	-201
6.746	-193
6.747	-187
6.748	-186
6.749	-185
6.75	-184
6.751	-184
6.752	-184
6.753	-184
6.754	-185
6.755	-188
6.756	-192
6.757	-195
6.758	-196
6.759	-197
6.76	-199
6.761	-196
6.762	-191
6.763	-185
6.764	-180
6.765	-177
6.766	-175
6.767	-173
6.768	-173
6.769	-174
6.77	-175
6.771	-176
6.772	-178
6.773	-181
6.774	-183
6.775	-183
6.776	-182
6.777	-181
6.778	-179
6.779	-178
6.78	-177
6.781	-176
6.782	-172
6.783	-168
6.784	-163
6.785	-162
6.786	-167
6.787	-171
6.788	-176
6.789	-181
6.79	-187
6.791	-192
6.792	-192
6.793	-187
6.794	-181
6.795	-176
6.796	-170
6.797	-164
6.798	-159
6.799	-156
6.8	-155
6.801	-154
6.802	-154
6.803	-162
6.804	-170
6.805	-177
6.806	-183
6.807	-187
6.808	-192
6.809	-195
6.81	-195
6.811	-195
6.812	-195
6.813	-193
6.814	-191
6.815	-189
6.816	-187
6.817	-187
6.818	-187
6.819	-187
6.82	-193
6.821	-198
6.822	-204
6.823	-207
6.824	-207
6.825	-207
6.826	-207
6.827	-205
6.828	-202
6.829	-200
6.83	-195
6.831	-188
6.832	-182
6.833	-176
6.834	-180
6.835	-183
6.836	-186
6.837	-193
6.838	-201
6.839	-209
6.84	-215
6.841	-215
6.842	-215
6.843	-215
6.844	-218
6.845	-223
6.846	-227
6.847	-228
6.848	-222
6.849	-217
6.85	-211
6.851	-209
6.852	-206
6.853	-204
6.854	-205
6.855	-209
6.856	-214
6.857	-218
6.858	-217
6.859	-216
6.86	-215
6.861	-218
6.862	-223
6.863	-229
6.864	-233
6.865	-224
6.866	-215
6.867	-206
6.868	-195
6.869	-182
6.87	-170
6.871	-161
6.872	-166
6.873	-170
6.874	-175
6.875	-176
6.876	-176
6.877	-176
6.878	-175
6.879	-173
6.88	-171
6.881	-168
6.882	-163
6.883	-158
6.884	-152
6.885	-147
6.886	-142
6.887	-138
6.888	-133
6.889	-140
6.89	-147
6.891	-153
6.892	-157
6.893	-158
6.894	-159
6.895	-160
6.896	-162
6.897	-163
6.898	-164
6.899	-161
6.9	-155
6.901	-149
6.902	-144
6.903	-141
6.904	-137
6.905	-134
6.906	-137
6.907	-141
6.908	-146
6.909	-149
6.91	-152
6.911	-154
6.912	-156
6.913	-154
6.914	-150
6.915	-147
6.916	-144
6.917	-140
6.918	-137
6.919	-133
6.92	-131
6.921	-129
6.922	-127
6.923	-130
6.924	-137
6.925	-145
6.926	-152
6.927	-148
6.928	-143
6.929	-139
6.93	-140
6.931	-144
6.932	-149
6.933	-151
6.934	-145
6.935	-138
6.936	-131
6.937	-126
6.938	-122
6.939	-117
6.94	-116
6.941	-124
6.942	-132
6.943	-140
6.944	-136
6.945	-131
6.946	-125
6.947	-122
6.948	-123
6.949	-124
6.95	-125
6.951	-119
6.952	-112
6.953	-106
6.954	-100
6.955	-96
6.956	-91
6.957	-87
6.958	-98
6.959	-110
6.96	-122
6.961	-139
6.962	-160
6.963	-181
6.964	-202
6.965	-224
6.966	-245
6.967	-266
6.968	-285
6.969	-301
6.97	-316
6.971	-334
6.972	-370
6.973	-405
6.974	-441
6.975	-486
6.976	-536
6.977	-584
6.978	-622
6.979	-623
6.98	-624
6.981	-625
6.982	-606
6.983	-580
6.984	-553
6.985	-525
6.986	-495
6.987	-465
6.988	-435
6.989	-395
6.99	-352
6.991	-309
6.992	-266
6.993	-222
6.994	-179
6.995	-135
6.996	-115
6.997	-96
6.998	-78
6.999	-69
7	-71
7.001	-73
7.002	-75
7.003	-83
7.004	-93
7.005	-103
7.006	-112
7.007	-120
7.008	-128
7.009	-136
7.01	-141
7.011	-145
7.012	-150
7.013	-154
7.014	-157
7.015	-161
7.016	-164
7.017	-160
7.018	-156
7.019	-151
7.02	-149
7.021	-149
7.022	-149
7.023	-149
7.024	-150
7.025	-151
7.026	-152
7.027	-157
7.028	-163
7.029	-170
7.03	-175
7.031	-171
7.032	-166
7.033	-162
7.034	-159
7.035	-157
7.036	-154
7.037	-152
7.038	-148
7.039	-145
7.04	-142
7.041	-143
7.042	-145
7.043	-147
7.044	-152
7.045	-159
7.046	-167
7.047	-175
7.048	-178
7.049	-180
7.05	-182
7.051	-181
7.052	-175
7.053	-170
7.054	-164
7.055	-164
7.056	-164
7.057	-164
7.058	-162
7.059	-159
7.06	-156
7.061	-153
7.062	-158
7.063	-162
7.064	-167
7.065	-176
7.066	-187
7.067	-198
7.068	-207
7.069	-205
7.07	-204
7.071	-203
7.072	-199
7.073	-195
7.074	-190
7.075	-184
7.076	-175
7.077	-167
7.078	-158
7.079	-161
7.08	-167
7.081	-173
7.082	-178
7.083	-182
7.084	-187
7.085	-191
7.086	-187
7.087	-182
7.088	-178
7.089	-179
7.09	-185
7.091	-190
7.092	-195
7.093	-190
7.094	-186
7.095	-181
7.096	-186
7.097	-195
7.098	-204
7.099	-211
7.1	-212
7.101	-213
7.102	-214
7.103	-212
7.104	-209
7.105	-205
7.106	-203
7.107	-203
7.108	-203
7.109	-203
7.11	-203
7.111	-203
7.112	-203
7.113	-206
7.114	-212
7.115	-219
7.116	-226
7.117	-231
7.118	-235
7.119	-240
7.12	-239
7.121	-235
7.122	-230
7.123	-226
7.124	-224
7.125	-221
7.126	-219
7.127	-222
7.128	-228
7.129	-233
7.13	-239
7.131	-243
7.132	-248
7.133	-252
7.134	-258
7.135	-265
7.136	-272
7.137	-276
7.138	-275
7.139	-274
7.14	-273
7.141	-270
7.142	-266
7.143	-263
7.144	-261
7.145	-263
7.146	-264
7.147	-265
7.148	-271
7.149	-278
7.15	-285
7.151	-295
7.152	-310
7.153	-325
7.154	-338
7.155	-325
7.156	-313
7.157	-301
7.158	-298
7.159	-301
7.16	-305
7.161	-308
7.162	-309
7.163	-310
7.164	-311
7.165	-315
7.166	-321
7.167	-327
7.168	-333
7.169	-339
7.17	-346
7.171	-353
7.172	-345
7.173	-333
7.174	-322
7.175	-316
7.176	-320
7.177	-323
7.178	-327
7.179	-327
7.18	-327
7.181	-327
7.182	-326
7.183	-325
7.184	-324
7.185	-323
7.186	-324
7.187	-325
7.188	-326
7.189	-323
7.19	-318
7.191	-312
7.192	-307
7.193	-302
7.194	-298
7.195	-293
7.196	-290
7.197	-288
7.198	-286
7.199	-286
7.2	-294
7.201	-302
7.202	-310
7.203	-301
7.204	-289
7.205	-277
7.206	-265
7.207	-255
7.208	-245
7.209	-235
7.21	-233
7.211	-232
7.212	-231
7.213	-227
7.214	-220
7.215	-213
7.216	-207
7.217	-207
7.218	-207
7.219	-207
7.22	-207
7.221	-207
7.222	-207
7.223	-205
7.224	-192
7.225	-178
7.226	-165
7.227	-160
7.228	-158
7.229	-157
7.23	-157
7.231	-159
7.232	-161
7.233	-164
7.234	-170
7.235	-176
7.236	-183
7.237	-186
7.238	-180
7.239	-174
7.24	-169
7.241	-159
7.242	-149
7.243	-139
7.244	-135
7.245	-140
7.246	-144
7.247	-149
7.248	-147
7.249	-144
7.25	-142
7.251	-143
7.252	-146
7.253	-150
7.254	-153
7.255	-155
7.256	-157
7.257	-160
7.258	-157
7.259	-151
7.26	-145
7.261	-140
7.262	-136
7.263	-131
7.264	-127
7.265	-130
7.266	-135
7.267	-141
7.268	-146
7.269	-149
7.27	-153
7.271	-156
7.272	-157
7.273	-159
7.274	-160
7.275	-158
7.276	-154
7.277	-149
7.278	-145
7.279	-140
7.28	-136
7.281	-132
7.282	-131
7.283	-135
7.284	-138
7.285	-141
7.286	-145
7.287	-148
7.288	-151
7.289	-153
7.29	-154
7.291	-156
7.292	-156
7.293	-156
7.294	-156
7.295	-156
7.296	-153
7.297	-149
7.298	-144
7.299	-141
7.3	-141
7.301	-141
7.302	-141
7.303	-139
7.304	-137
7.305	-135
7.306	-136
7.307	-141
7.308	-147
7.309	-152
7.31	-149
7.311	-146
7.312	-143
7.313	-141
7.314	-141
7.315	-141
7.316	-141
7.317	-141
7.318	-141
7.319	-141
7.32	-145
7.321	-152
7.322	-159
7.323	-164
7.324	-164
7.325	-164
7.326	-164
7.327	-162
7.328	-158
7.329	-155
7.33	-152
7.331	-150
7.332	-148
7.333	-145
7.334	-144
7.335	-143
7.336	-142
7.337	-143
7.338	-147
7.339	-152
7.34	-156
7.341	-156
7.342	-156
7.343	-156
7.344	-157
7.345	-158
7.346	-159
7.347	-160
7.348	-152
7.349	-144
7.35	-136
7.351	-137
7.352	-142
7.353	-148
7.354	-153
7.355	-156
7.356	-160
7.357	-163
7.358	-167
7.359	-170
7.36	-173
7.361	-175
7.362	-172
7.363	-168
7.364	-165
7.365	-160
7.366	-154
7.367	-148
7.368	-145
7.369	-146
7.37	-148
7.371	-149
7.372	-152
7.373	-155
7.374	-159
7.375	-161
7.376	-162
7.377	-163
7.378	-164
7.379	-158
7.38	-153
7.381	-147
7.382	-145
7.383	-145
7.384	-145
7.385	-145
7.386	-147
7.387	-150
7.388	-152
7.389	-154
7.39	-156
7.391	-159
7.392	-160
7.393	-158
7.394	-155
7.395	-153
7.396	-150
7.397	-147
7.398	-143
7.399	-141
7.4	-140
7.401	-138
7.402	-137
7.403	-138
7.404	-139
7.405	-140
7.406	-143
7.407	-148
7.408	-152
7.409	-156
7.41	-152
7.411	-147
7.412	-143
7.413	-140
7.414	-138
7.415	-135
7.416	-133
7.417	-131
7.418	-129
7.419	-126
7.42	-130
7.421	-137
7.422	-143
7.423	-149
7.424	-149
7.425	-149
7.426	-149
7.427	-150
7.428	-151
7.429	-152
7.43	-152
7.431	-148
7.432	-145
7.433	-141
7.434	-140
7.435	-139
7.436	-138
7.437	-138
7.438	-139
7.439	-140
7.44	-141
7.441	-141
7.442	-141
7.443	-141
7.444	-139
7.445	-136
7.446	-132
7.447	-129
7.448	-129
7.449	-129
7.45	-129
7.451	-127
7.452	-122
7.453	-118
7.454	-115
7.455	-122
7.456	-129
7.457	-135
7.458	-140
7.459	-143
7.46	-146
7.461	-148
7.462	-144
7.463	-141
7.464	-138
7.465	-135
7.466	-133
7.467	-131
7.468	-128
7.469	-125
7.47	-121
7.471	-118
7.472	-124
7.473	-131
7.474	-138
7.475	-144
7.476	-150
7.477	-155
7.478	-160
7.479	-153
7.48	-146
7.481	-140
7.482	-136
7.483	-134
7.484	-131
7.485	-129
7.486	-127
7.487	-125
7.488	-122
7.489	-127
7.49	-133
7.491	-140
7.492	-146
7.493	-149
7.494	-153
7.495	-156
7.496	-150
7.497	-142
7.498	-134
7.499	-130
7.5	-131
7.501	-132
7.502	-133
7.503	-128
7.504	-122
7.505	-117
7.506	-117
7.507	-124
7.508	-131
7.509	-137
7.51	-136
7.511	-135
7.512	-134
7.513	-131
7.514	-128
7.515	-125
7.516	-122
7.517	-123
7.518	-124
7.519	-125
7.52	-125
7.521	-124
7.522	-123
7.523	-123
7.524	-130
7.525	-137
7.526	-144
7.527	-149
7.528	-153
7.529	-158
7.53	-160
7.531	-159
7.532	-158
7.533	-157
7.534	-156
7.535	-156
7.536	-156
7.537	-156
7.538	-155
7.539	-154
7.54	-153
7.541	-155
7.542	-157
7.543	-159
7.544	-162
7.545	-166
7.546	-169
7.547	-172
7.548	-168
7.549	-165
7.55	-161
7.551	-161
7.552	-162
7.553	-163
7.554	-165
7.555	-167
7.556	-169
7.557	-172
7.558	-176
7.559	-182
7.56	-188
7.561	-192
7.562	-196
7.563	-199
7.564	-203
7.565	-198
7.566	-192
7.567	-187
7.568	-184
7.569	-184
7.57	-184
7.571	-184
7.572	-185
7.573	-186
7.574	-187
7.575	-185
7.576	-180
7.577	-176
7.578	-172
7.579	-171
7.58	-170
7.581	-168
7.582	-167
7.583	-164
7.584	-162
7.585	-159
7.586	-154
7.587	-148
7.588	-142
7.589	-140
7.59	-139
7.591	-138
7.592	-138
7.593	-139
7.594	-140
7.595	-141
7.596	-141
7.597	-141
7.598	-141
7.599	-141
7.6	-139
7.601	-138
7.602	-137
7.603	-134
7.604	-130
7.605	-127
7.606	-127
7.607	-129
7.608	-131
7.609	-133
7.61	-132
7.611	-131
7.612	-130
7.613	-131
7.614	-133
7.615	-135
7.616	-136
7.617	-132
7.618	-127
7.619	-123
7.62	-120
7.621	-118
7.622	-116
7.623	-115
7.624	-118
7.625	-122
7.626	-125
7.627	-128
7.628	-132
7.629	-135
7.63	-136
7.631	-134
7.632	-132
7.633	-129
7.634	-127
7.635	-125
7.636	-123
7.637	-121
7.638	-118
7.639	-116
7.64	-114
7.641	-116
7.642	-119
7.643	-121
7.644	-125
7.645	-129
7.646	-133
7.647	-137
7.648	-136
7.649	-135
7.65	-134
7.651	-129
7.652	-124
7.653	-118
7.654	-113
7.655	-111
7.656	-109
7.657	-107
7.658	-106
7.659	-106
7.66	-106
7.661	-107
7.662	-108
7.663	-109
7.664	-110
7.665	-110
7.666	-110
7.667	-110
7.668	-107
7.669	-100
7.67	-93
7.671	-87
7.672	-88
7.673	-89
7.674	-90
7.675	-98
7.676	-115
7.677	-133
7.678	-151
7.679	-175
7.68	-199
7.681	-224
7.682	-250
7.683	-278
7.684	-306
7.685	-335
7.686	-369
7.687	-404
7.688	-439
7.689	-480
7.69	-528
7.691	-574
7.692	-617
7.693	-634
7.694	-651
7.695	-668
7.696	-662
7.697	-644
7.698	-626
7.699	-604
7.7	-569
7.701	-533
7.702	-497
7.703	-451
7.704	-402
7.705	-353
7.706	-303
7.707	-252
7.708	-202
7.709	-151
7.71	-115
7.711	-80
7.712	-47
7.713	-29
7.714	-41
7.715	-53
7.716	-65
7.717	-73
7.718	-81
7.719	-88
7.72	-96
7.721	-107
7.722	-118
7.723	-129
7.724	-132
7.725	-130
7.726	-127
7.727	-126
7.728	-131
7.729	-135
7.73	-140
7.731	-143
7.732	-145
7.733	-147
7.734	-149
7.735	-150
7.736	-151
7.737	-152
7.738	-149
7.739	-144
7.74	-140
7.741	-136
7.742	-132
7.743	-129
7.744	-126
7.745	-131
7.746	-137
7.747	-142
7.748	-145
7.749	-147
7.75	-148
7.751	-149
7.752	-155
7.753	-160
7.754	-166
7.755	-163
7.756	-155
7.757	-147
7.758	-141
7.759	-140
7.76	-139
7.761	-137
7.762	-139
7.763	-141
7.764	-143
7.765	-146
7.766	-151
7.767	-155
7.768	-160
7.769	-160
7.77	-160
7.771	-160
7.772	-159
7.773	-154
7.774	-150
7.775	-145
7.776	-144
7.777	-143
7.778	-142
7.779	-143
7.78	-146
7.781	-149
7.782	-153
7.783	-160
7.784	-166
7.785	-173
7.786	-177
7.787	-178
7.788	-179
7.789	-179
7.79	-177
7.791	-175
7.792	-173
7.793	-170
7.794	-168
7.795	-166
7.796	-165
7.797	-170
7.798	-174
7.799	-179
7.8	-181
7.801	-182
7.802	-183
7.803	-184
7.804	-185
7.805	-186
7.806	-187
7.807	-182
7.808	-177
7.809	-171
7.81	-168
7.811	-166
7.812	-165
7.813	-164
7.814	-170
7.815	-176
7.816	-181
7.817	-188
7.818	-194
7.819	-201
7.82	-207
7.821	-206
7.822	-204
7.823	-203
7.824	-200
7.825	-195
7.826	-191
7.827	-188
7.828	-192
7.829	-195
7.83	-198
7.831	-201
7.832	-203
7.833	-205
7.834	-210
7.835	-220
7.836	-231
7.837	-241
7.838	-244
7.839	-246
7.84	-248
7.841	-247
7.842	-241
7.843	-236
7.844	-230
7.845	-228
7.846	-226
7.847	-223
7.848	-225
7.849	-231
7.85	-237
7.851	-242
7.852	-247
7.853	-251
7.854	-256
7.855	-263
7.856	-272
7.857	-281
7.858	-288
7.859	-285
7.86	-283
7.861	-281
7.862	-279
7.863	-276
7.864	-274
7.865	-274
7.866	-280
7.867	-286
7.868	-291
7.869	-297
7.87	-303
7.871	-308
7.872	-313
7.873	-318
7.874	-322
7.875	-327
7.876	-328
7.877	-329
7.878	-330
7.879	-330
7.88	-329
7.881	-328
7.882	-327
7.883	-329
7.884	-332
7.885	-334
7.886	-337
7.887	-340
7.888	-343
7.889	-346
7.89	-347
7.891	-349
7.892	-350
7.893	-344
7.894	-336
7.895	-328
7.896	-322
7.897	-319
7.898	-315
7.899	-312
7.9	-316
7.901	-322
7.902	-327
7.903	-331
7.904	-332
7.905	-333
7.906	-335
7.907	-330
7.908	-326
7.909	-321
7.91	-315
7.911	-307
7.912	-299
7.913	-292
7.914	-286
7.915	-280
7.916	-275
7.917	-272
7.918	-271
7.919	-270
7.92	-268
7.921	-262
7.922	-256
7.923	-251
7.924	-249
7.925	-249
7.926	-249
7.927	-245
7.928	-229
7.929	-213
7.93	-198
7.931	-196
7.932	-197
7.933	-198
7.934	-198
7.935	-194
7.936	-191
7.937	-188
7.938	-190
7.939	-192
7.94	-194
7.941	-193
7.942	-190
7.943	-187
7.944	-183
7.945	-175
7.946	-167
7.947	-160
7.948	-156
7.949	-155
7.95	-154
7.951	-153
7.952	-153
7.953	-153
7.954	-153
7.955	-153
7.956	-153
7.957	-153
7.958	-153
7.959	-155
7.96	-158
7.961	-160
7.962	-155
7.963	-148
7.964	-141
7.965	-136
7.966	-134
7.967	-132
7.968	-130
7.969	-133
7.97	-136
7.971	-139
7.972	-144
7.973	-151
7.974	-158
7.975	-164
7.976	-157
7.977	-150
7.978	-144
7.979	-140
7.98	-137
7.981	-135
7.982	-133
7.983	-131
7.984	-128
7.985	-126
7.986	-130
7.987	-137
7.988	-144
7.989	-148
7.99	-147
7.991	-146
7.992	-145
7.993	-144
7.994	-143
7.995	-142
7.996	-141
7.997	-141
7.998	-141
7.999	-141
8	-139
8.001	-137
8.002	-134
8.003	-135
8.004	-138
8.005	-142
8.006	-145
8.007	-149
8.008	-154
8.009	-158
8.01	-160
8.011	-159
8.012	-157
8.013	-156
8.014	-151
8.015	-147
8.016	-142
8.017	-141
8.018	-141
8.019	-141
8.02	-143
8.021	-149
8.022	-156
8.023	-163
8.024	-165
8.025	-166
8.026	-167
8.027	-167
8.028	-164
8.029	-160
8.03	-157
8.031	-154
8.032	-152
8.033	-150
8.034	-147
8.035	-144
8.036	-141
8.037	-137
8.038	-144
8.039	-151
8.04	-157
8.041	-162
8.042	-164
8.043	-166
8.044	-168
8.045	-166
8.046	-163
8.047	-161
8.048	-157
8.049	-153
8.05	-148
8.051	-144
8.052	-142
8.053	-140
8.054	-138
8.055	-143
8.056	-151
8.057	-159
8.058	-166
8.059	-172
8.06	-177
8.061	-183
8.062	-180
8.063	-175
8.064	-171
8.065	-166
8.066	-160
8.067	-154
8.068	-149
8.069	-150
8.07	-151
8.071	-152
8.072	-154
8.073	-156
8.074	-158
8.075	-161
8.076	-165
8.077	-170
8.078	-174
8.079	-172
8.08	-167
8.081	-161
8.082	-156
8.083	-151
8.084	-147
8.085	-142
8.086	-144
8.087	-147
8.088	-150
8.089	-153
8.09	-156
8.091	-158
8.092	-160
8.093	-161
8.094	-162
8.095	-164
8.096	-162
8.097	-158
8.098	-153
8.099	-149
8.1	-151
8.101	-153
8.102	-155
8.103	-160
8.104	-167
8.105	-173
8.106	-180
8.107	-187
8.108	-194
8.109	-200
8.11	-209
8.111	-219
8.112	-229
8.113	-238
8.114	-236
8.115	-235
8.116	-234
8.117	-233
8.118	-232
8.119	-231
8.12	-229
8.121	-226
8.122	-222
8.123	-219
8.124	-226
8.125	-235
8.126	-244
8.127	-251
8.128	-256
8.129	-260
8.13	-265
8.131	-261
8.132	-256
8.133	-252
8.134	-247
8.135	-241
8.136	-235
8.137	-230
8.138	-236
8.139	-242
8.14	-247
8.141	-252
8.142	-257
8.143	-261
8.144	-265
8.145	-266
8.146	-267
8.147	-268
8.148	-264
8.149	-257
8.15	-251
8.151	-245
8.152	-244
8.153	-243
8.154	-242
8.155	-243
8.156	-244
8.157	-245
8.158	-247
8.159	-252
8.16	-256
8.161	-261
8.162	-266
8.163	-272
8.164	-277
8.165	-278
8.166	-272
8.167	-266
8.168	-261
8.169	-256
8.17	-252
8.171	-247
8.172	-245
8.173	-244
8.174	-243
8.175	-243
8.176	-251
8.177	-258
8.178	-266
8.179	-268
8.18	-267
8.181	-266
8.182	-264
8.183	-261
8.184	-257
8.185	-254
8.186	-252
8.187	-251
8.188	-250
8.189	-249
8.19	-249
8.191	-249
8.192	-249
8.193	-250
8.194	-252
8.195	-253
8.196	-255
8.197	-260
8.198	-264
8.199	-269
8.2	-264
8.201	-260
8.202	-255
8.203	-251
8.204	-246
8.205	-242
8.206	-238
8.207	-239
8.208	-240
8.209	-241
8.21	-245
8.211	-251
8.212	-257
8.213	-261
8.214	-262
8.215	-263
8.216	-265
8.217	-257
8.218	-247
8.219	-237
8.22	-230
8.221	-232
8.222	-233
8.223	-234
8.224	-237
8.225	-240
8.226	-244
8.227	-248
8.228	-254
8.229	-259
8.23	-265
8.231	-266
8.232	-267
8.233	-268
8.234	-266
8.235	-260
8.236	-254
8.237	-249
8.238	-248
8.239	-247
8.24	-246
8.241	-248
8.242	-253
8.243	-257
8.244	-262
8.245	-265
8.246	-268
8.247	-272
8.248	-273
8.249	-275
8.25	-276
8.251	-275
8.252	-271
8.253	-266
8.254	-262
8.255	-260
8.256	-259
8.257	-258
8.258	-259
8.259	-265
8.26	-271
8.261	-276
8.262	-285
8.263	-294
8.264	-303
8.265	-308
8.266	-309
8.267	-310
8.268	-311
8.269	-307
8.27	-302
8.271	-298
8.272	-291
8.273	-283
8.274	-275
8.275	-269
8.276	-273
8.277	-276
8.278	-279
8.279	-283
8.28	-286
8.281	-290
8.282	-292
8.283	-293
8.284	-295
8.285	-296
8.286	-286
8.287	-275
8.288	-264
8.289	-254
8.29	-248
8.291	-241
8.292	-234
8.293	-236
8.294	-238
8.295	-241
8.296	-242
8.297	-242
8.298	-242
8.299	-242
8.3	-243
8.301	-244
8.302	-245
8.303	-240
8.304	-231
8.305	-222
8.306	-214
8.307	-209
8.308	-205
8.309	-200
8.31	-201
8.311	-203
8.312	-205
8.313	-207
8.314	-208
8.315	-209
8.316	-210
8.317	-210
8.318	-209
8.319	-208
8.32	-206
8.321	-204
8.322	-201
8.323	-199
8.324	-194
8.325	-188
8.326	-183
8.327	-180
8.328	-180
8.329	-180
8.33	-180
8.331	-183
8.332	-187
8.333	-190
8.334	-191
8.335	-191
8.336	-191
8.337	-191
8.338	-185
8.339	-179
8.34	-174
8.341	-170
8.342	-168
8.343	-166
8.344	-166
8.345	-171
8.346	-177
8.347	-182
8.348	-183
8.349	-182
8.35	-180
8.351	-181
8.352	-184
8.353	-188
8.354	-191
8.355	-188
8.356	-185
8.357	-182
8.358	-177
8.359	-172
8.36	-166
8.361	-161
8.362	-165
8.363	-169
8.364	-174
8.365	-176
8.366	-178
8.367	-179
8.368	-179
8.369	-175
8.37	-170
8.371	-166
8.372	-160
8.373	-153
8.374	-146
8.375	-139
8.376	-129
8.377	-119
8.378	-109
8.379	-111
8.38	-116
8.381	-122
8.382	-131
8.383	-148
8.384	-165
8.385	-182
8.386	-209
8.387	-239
8.388	-268
8.389	-292
8.39	-308
8.391	-325
8.392	-342
8.393	-376
8.394	-409
8.395	-443
8.396	-490
8.397	-548
8.398	-605
8.399	-656
8.4	-681
8.401	-706
8.402	-728
8.403	-728
8.404	-717
8.405	-705
8.406	-689
8.407	-656
8.408	-621
8.409	-584
8.41	-541
8.411	-494
8.412	-448
8.413	-399
8.414	-345
8.415	-291
8.416	-237
8.417	-192
8.418	-148
8.419	-105
8.42	-79
8.421	-78
8.422	-77
8.423	-76
8.424	-79
8.425	-83
8.426	-87
8.427	-93
8.428	-101
8.429	-110
8.43	-119
8.431	-131
8.432	-143
8.433	-155
8.434	-165
8.435	-168
8.436	-172
8.437	-175
8.438	-177
8.439	-178
8.44	-179
8.441	-177
8.442	-169
8.443	-161
8.444	-153
8.445	-151
8.446	-148
8.447	-146
8.448	-149
8.449	-157
8.45	-164
8.451	-172
8.452	-173
8.453	-174
8.454	-175
8.455	-173
8.456	-169
8.457	-164
8.458	-160
8.459	-157
8.46	-153
8.461	-150
8.462	-149
8.463	-149
8.464	-149
8.465	-150
8.466	-153
8.467	-156
8.468	-160
8.469	-163
8.47	-166
8.471	-170
8.472	-172
8.473	-172
8.474	-172
8.475	-172
8.476	-171
8.477	-170
8.478	-169
8.479	-167
8.48	-165
8.481	-163
8.482	-161
8.483	-166
8.484	-172
8.485	-177
8.486	-182
8.487	-185
8.488	-188
8.489	-191
8.49	-188
8.491	-184
8.492	-181
8.493	-177
8.494	-172
8.495	-168
8.496	-164
8.497	-164
8.498	-164
8.499	-164
8.5	-168
8.501	-172
8.502	-177
8.503	-181
8.504	-186
8.505	-190
8.506	-195
8.507	-193
8.508	-191
8.509	-189
8.51	-186
8.511	-183
8.512	-179
8.513	-176
8.514	-175
8.515	-174
8.516	-172
8.517	-178
8.518	-188
8.519	-198
8.52	-206
8.521	-203
8.522	-200
8.523	-196
8.524	-195
8.525	-195
8.526	-195
8.527	-195
8.528	-192
8.529	-190
8.53	-188
8.531	-188
8.532	-189
8.533	-191
8.534	-194
8.535	-202
8.536	-210
8.537	-217
8.538	-216
8.539	-214
8.54	-212
8.541	-211
8.542	-211
8.543	-211
8.544	-211
8.545	-211
8.546	-211
8.547	-211
8.548	-211
8.549	-212
8.55	-214
8.551	-215
8.552	-221
8.553	-226
8.554	-232
8.555	-238
8.556	-245
8.557	-252
8.558	-256
8.559	-253
8.56	-250
8.561	-246
8.562	-246
8.563	-246
8.564	-246
8.565	-246
8.566	-248
8.567	-251
8.568	-253
8.569	-261
8.57	-270
8.571	-279
8.572	-286
8.573	-291
8.574	-295
8.575	-300
8.576	-300
8.577	-300
8.578	-300
8.579	-299
8.58	-296
8.581	-294
8.582	-292
8.583	-296
8.584	-299
8.585	-302
8.586	-307
8.587	-313
8.588	-318
8.589	-323
8.59	-326
8.591	-328
8.592	-330
8.593	-330
8.594	-329
8.595	-328
8.596	-326
8.597	-324
8.598	-322
8.599	-319
8.6	-315
8.601	-311
8.602	-306
8.603	-304
8.604	-307
8.605	-309
8.606	-311
8.607	-312
8.608	-314
8.609	-315
8.61	-312
8.611	-307
8.612	-301
8.613	-295
8.614	-286
8.615	-277
8.616	-268
8.617	-264
8.618	-263
8.619	-262
8.62	-261
8.621	-261
8.622	-261
8.623	-261
8.624	-260
8.625	-259
8.626	-258
8.627	-254
8.628	-244
8.629	-234
8.63	-224
8.631	-217
8.632	-210
8.633	-203
8.634	-198
8.635	-194
8.636	-191
8.637	-188
8.638	-193
8.639	-198
8.64	-204
8.641	-206
8.642	-205
8.643	-204
8.644	-203
8.645	-193
8.646	-182
8.647	-172
8.648	-165
8.649	-161
8.65	-157
8.651	-152
8.652	-146
8.653	-141
8.654	-135
8.655	-133
8.656	-131
8.657	-130
8.658	-131
8.659	-138
8.66	-145
8.661	-151
8.662	-147
8.663	-141
8.664	-134
8.665	-129
8.666	-126
8.667	-124
8.668	-122
8.669	-122
8.67	-122
8.671	-122
8.672	-122
8.673	-123
8.674	-124
8.675	-126
8.676	-130
8.677	-135
8.678	-139
8.679	-137
8.68	-131
8.681	-124
8.682	-117
8.683	-114
8.684	-111
8.685	-107
8.686	-107
8.687	-108
8.688	-109
8.689	-111
8.69	-116
8.691	-120
8.692	-125
8.693	-130
8.694	-136
8.695	-141
8.696	-144
8.697	-142
8.698	-140
8.699	-137
8.7	-131
8.701	-124
8.702	-118
8.703	-114
8.704	-116
8.705	-117
8.706	-118
8.707	-122
8.708	-127
8.709	-131
8.71	-136
8.711	-140
8.712	-145
8.713	-148
8.714	-140
8.715	-132
8.716	-124
8.717	-120
8.718	-118
8.719	-116
8.72	-115
8.721	-118
8.722	-121
8.723	-125
8.724	-131
8.725	-137
8.726	-144
8.727	-150
8.728	-153
8.729	-157
8.73	-160
8.731	-156
8.732	-150
8.733	-144
8.734	-137
8.735	-128
8.736	-119
8.737	-110
8.738	-113
8.739	-117
8.74	-120
8.741	-122
8.742	-123
8.743	-125
8.744	-126
8.745	-128
8.746	-130
8.747	-132
8.748	-132
8.749	-130
8.75	-127
8.751	-125
8.752	-124
8.753	-123
8.754	-122
8.755	-123
8.756	-126
8.757	-128
8.758	-130
8.759	-134
8.76	-137
8.761	-140
8.762	-143
8.763	-145
8.764	-147
8.765	-147
8.766	-142
8.767	-138
8.768	-134
8.769	-129
8.77	-125
8.771	-120
8.772	-118
8.773	-118
8.774	-118
8.775	-118
8.776	-120
8.777	-122
8.778	-125
8.779	-128
8.78	-131
8.781	-134
8.782	-137
8.783	-133
8.784	-130
8.785	-127
8.786	-123
8.787	-120
8.788	-116
8.789	-115
8.79	-117
8.791	-119
8.792	-121
8.793	-125
8.794	-130
8.795	-134
8.796	-136
8.797	-133
8.798	-129
8.799	-126
8.8	-121
8.801	-117
8.802	-112
8.803	-110
8.804	-108
8.805	-107
8.806	-106
8.807	-110
8.808	-113
8.809	-116
8.81	-121
8.811	-127
8.812	-132
8.813	-137
8.814	-132
8.815	-128
8.816	-123
8.817	-120
8.818	-118
8.819	-116
8.82	-113
8.821	-108
8.822	-104
8.823	-99
8.824	-101
8.825	-104
8.826	-108
8.827	-111
8.828	-113
8.829	-115
8.83	-118
8.831	-120
8.832	-122
8.833	-124
8.834	-123
8.835	-118
8.836	-112
8.837	-106
8.838	-104
8.839	-102
8.84	-100
8.841	-101
8.842	-107
8.843	-113
8.844	-118
8.845	-120
8.846	-122
8.847	-125
8.848	-123
8.849	-120
8.85	-117
8.851	-113
8.852	-106
8.853	-99
8.854	-93
8.855	-88
8.856	-84
8.857	-79
8.858	-76
8.859	-84
8.86	-93
8.861	-102
8.862	-109
8.863	-116
8.864	-123
8.865	-129
8.866	-126
8.867	-123
8.868	-119
8.869	-115
8.87	-109
8.871	-103
8.872	-98
8.873	-96
8.874	-94
8.875	-92
8.876	-92
8.877	-96
8.878	-99
8.879	-102
8.88	-108
8.881	-113
8.882	-119
8.883	-122
8.884	-122
8.885	-122
8.886	-122
8.887	-118
8.888	-115
8.889	-111
8.89	-111
8.891	-112
8.892	-113
8.893	-114
8.894	-117
8.895	-119
8.896	-121
8.897	-124
8.898	-127
8.899	-131
8.9	-133
8.901	-132
8.902	-131
8.903	-130
8.904	-128
8.905	-125
8.906	-123
8.907	-120
8.908	-116
8.909	-111
8.91	-107
8.911	-113
8.912	-121
8.913	-129
8.914	-137
8.915	-145
8.916	-153
8.917	-160
8.918	-163
8.919	-165
8.92	-167
8.921	-164
8.922	-156
8.923	-148
8.924	-141
8.925	-141
8.926	-141
8.927	-141
8.928	-146
8.929	-154
8.93	-162
8.931	-167
8.932	-163
8.933	-158
8.934	-154
8.935	-152
8.936	-151
8.937	-149
8.938	-147
8.939	-143
8.94	-138
8.941	-134
8.942	-129
8.943	-125
8.944	-120
8.945	-119
8.946	-123
8.947	-126
8.948	-129
8.949	-126
8.95	-123
8.951	-119
8.952	-115
8.953	-111
8.954	-106
8.955	-102
8.956	-101
8.957	-100
8.958	-99
8.959	-99
8.96	-100
8.961	-101
8.962	-103
8.963	-104
8.964	-105
8.965	-106
8.966	-109
8.967	-112
8.968	-115
8.969	-118
8.97	-116
8.971	-115
8.972	-114
8.973	-110
8.974	-106
8.975	-101
8.976	-97
8.977	-94
8.978	-91
8.979	-88
8.98	-89
8.981	-93
8.982	-96
8.983	-99
8.984	-102
8.985	-106
8.986	-109
8.987	-106
8.988	-99
8.989	-93
8.99	-87
8.991	-86
8.992	-85
8.993	-84
8.994	-83
8.995	-81
8.996	-80
8.997	-79
8.998	-86
8.999	-93
9	-101
9.001	-107
9.002	-108
9.003	-109
9.004	-110
9.005	-107
9.006	-104
9.007	-100
9.008	-96
9.009	-89
9.01	-83
9.011	-76
9.012	-75
9.013	-75
9.014	-75
9.015	-77
9.016	-82
9.017	-87
9.018	-93
9.019	-97
9.02	-100
9.021	-103
9.022	-106
9.023	-109
9.024	-111
9.025	-113
9.026	-103
9.027	-86
9.028	-70
9.029	-56
9.03	-54
9.031	-52
9.032	-49
9.033	-48
9.034	-48
9.035	-48
9.036	-48
9.037	-56
9.038	-65
9.039	-73
9.04	-82
9.041	-92
9.042	-101
9.043	-111
9.044	-135
9.045	-165
9.046	-194
9.047	-222
9.048	-246
9.049	-271
9.05	-296
9.051	-342
9.052	-393
9.053	-443
9.054	-492
9.055	-538
9.056	-583
9.057	-627
9.058	-627
9.059	-625
9.06	-623
9.061	-610
9.062	-584
9.063	-559
9.064	-532
9.065	-495
9.066	-457
9.067	-419
9.068	-379
9.069	-339
9.07	-299
9.071	-257
9.072	-209
9.073	-160
9.074	-112
9.075	-79
9.076	-54
9.077	-28
9.078	-7
9.079	-10
9.08	-13
9.081	-16
9.082	-20
9.083	-24
9.084	-28
9.085	-32
9.086	-45
9.087	-59
9.088	-73
9.089	-86
9.09	-97
9.091	-107
9.092	-119
9.093	-121
9.094	-120
9.095	-119
9.096	-116
9.097	-109
9.098	-103
9.099	-96
9.1	-96
9.101	-99
9.102	-101
9.103	-103
9.104	-108
9.105	-112
9.106	-117
9.107	-118
9.108	-118
9.109	-118
9.11	-117
9.111	-113
9.112	-110
9.113	-107
9.114	-111
9.115	-117
9.116	-122
9.117	-125
9.118	-122
9.119	-120
9.12	-118
9.121	-121
9.122	-125
9.123	-128
9.124	-134
9.125	-142
9.126	-150
9.127	-155
9.128	-145
9.129	-135
9.13	-125
9.131	-122
9.132	-122
9.133	-122
9.134	-122
9.135	-122
9.136	-122
9.137	-122
9.138	-126
9.139	-132
9.14	-137
9.141	-142
9.142	-147
9.143	-151
9.144	-156
9.145	-156
9.146	-154
9.147	-153
9.148	-150
9.149	-145
9.15	-139
9.151	-133
9.152	-138
9.153	-142
9.154	-147
9.155	-149
9.156	-150
9.157	-152
9.158	-153
9.159	-153
9.16	-153
9.161	-153
9.162	-150
9.163	-145
9.164	-141
9.165	-138
9.166	-140
9.167	-142
9.168	-144
9.169	-141
9.17	-137
9.171	-133
9.172	-132
9.173	-140
9.174	-148
9.175	-155
9.176	-160
9.177	-165
9.178	-169
9.179	-172
9.18	-172
9.181	-172
9.182	-172
9.183	-169
9.184	-165
9.185	-162
9.186	-161
9.187	-162
9.188	-163
9.189	-165
9.19	-171
9.191	-178
9.192	-185
9.193	-192
9.194	-198
9.195	-205
9.196	-210
9.197	-204
9.198	-198
9.199	-193
9.2	-193
9.201	-195
9.202	-197
9.203	-200
9.204	-202
9.205	-204
9.206	-206
9.207	-211
9.208	-215
9.209	-220
9.21	-225
9.211	-230
9.212	-236
9.213	-241
9.214	-236
9.215	-231
9.216	-225
9.217	-223
9.218	-224
9.219	-225
9.22	-226
9.221	-232
9.222	-238
9.223	-243
9.224	-250
9.225	-258
9.226	-266
9.227	-273
9.228	-275
9.229	-277
9.23	-280
9.231	-280
9.232	-280
9.233	-280
9.234	-280
9.235	-280
9.236	-280
9.237	-280
9.238	-283
9.239	-286
9.24	-290
9.241	-294
9.242	-300
9.243	-305
9.244	-311
9.245	-315
9.246	-320
9.247	-324
9.248	-325
9.249	-320
9.25	-316
9.251	-311
9.252	-307
9.253	-302
9.254	-298
9.255	-296
9.256	-296
9.257	-296
9.258	-296
9.259	-298
9.26	-301
9.261	-303
9.262	-307
9.263	-313
9.264	-319
9.265	-321
9.266	-313
9.267	-305
9.268	-297
9.269	-290
9.27	-282
9.271	-274
9.272	-267
9.273	-263
9.274	-258
9.275	-254
9.276	-256
9.277	-260
9.278	-263
9.279	-265
9.28	-265
9.281	-265
9.282	-264
9.283	-250
9.284	-235
9.285	-221
9.286	-214
9.287	-213
9.288	-212
9.289	-210
9.29	-202
9.291	-194
9.292	-186
9.293	-184
9.294	-184
9.295	-184
9.296	-183
9.297	-182
9.298	-181
9.299	-180
9.3	-174
9.301	-166
9.302	-158
9.303	-150
9.304	-142
9.305	-134
9.306	-126
9.307	-124
9.308	-121
9.309	-119
9.31	-120
9.311	-124
9.312	-129
9.313	-133
9.314	-138
9.315	-142
9.316	-147
9.317	-145
9.318	-138
9.319	-132
9.32	-125
9.321	-121
9.322	-116
9.323	-112
9.324	-112
9.325	-116
9.326	-119
9.327	-122
9.328	-124
9.329	-127
9.33	-129
9.331	-128
9.332	-125
9.333	-123
9.334	-120
9.335	-116
9.336	-111
9.337	-107
9.338	-106
9.339	-106
9.34	-106
9.341	-107
9.342	-108
9.343	-109
9.344	-110
9.345	-112
9.346	-115
9.347	-117
9.348	-119
9.349	-121
9.35	-123
9.351	-125
9.352	-122
9.353	-119
9.354	-115
9.355	-113
9.356	-112
9.357	-111
9.358	-111
9.359	-114
9.36	-117
9.361	-121
9.362	-124
9.363	-128
9.364	-131
9.365	-133
9.366	-133
9.367	-133
9.368	-133
9.369	-127
9.37	-119
9.371	-111
9.372	-108
9.373	-111
9.374	-114
9.375	-118
9.376	-119
9.377	-120
9.378	-121
9.379	-123
9.38	-125
9.381	-127
9.382	-129
9.383	-127
9.384	-125
9.385	-123
9.386	-120
9.387	-116
9.388	-113
9.389	-110
9.39	-110
9.391	-110
9.392	-110
9.393	-113
9.394	-116
9.395	-119
9.396	-123
9.397	-127
9.398	-132
9.399	-136
9.4	-136
9.401	-135
9.402	-134
9.403	-132
9.404	-127
9.405	-123
9.406	-118
9.407	-117
9.408	-116
9.409	-115
9.41	-116
9.411	-119
9.412	-122
9.413	-126
9.414	-128
9.415	-130
9.416	-132
9.417	-133
9.418	-133
9.419	-133
9.42	-133
9.421	-132
9.422	-131
9.423	-130
9.424	-126
9.425	-122
9.426	-117
9.427	-115
9.428	-118
9.429	-122
9.43	-125
9.431	-127
9.432	-130
9.433	-132
9.434	-133
9.435	-132
9.436	-131
9.437	-130
9.438	-127
9.439	-125
9.44	-123
9.441	-120
9.442	-117
9.443	-113
9.444	-110
9.445	-114
9.446	-117
9.447	-120
9.448	-123
9.449	-125
9.45	-127
9.451	-129
9.452	-129
9.453	-129
9.454	-129
9.455	-126
9.456	-120
9.457	-114
9.458	-109
9.459	-106
9.46	-103
9.461	-99
9.462	-102
9.463	-106
9.464	-111
9.465	-116
9.466	-123
9.467	-129
9.468	-136
9.469	-134
9.47	-131
9.471	-128
9.472	-125
9.473	-122
9.474	-120
9.475	-118
9.476	-115
9.477	-111
9.478	-108
9.479	-109
9.48	-115
9.481	-120
9.482	-126
9.483	-129
9.484	-132
9.485	-136
9.486	-135
9.487	-132
9.488	-128
9.489	-126
9.49	-127
9.491	-128
9.492	-129
9.493	-126
9.494	-122
9.495	-117
9.496	-114
9.497	-115
9.498	-117
9.499	-118
9.5	-122
9.501	-126
9.502	-130
9.503	-132
9.504	-130
9.505	-128
9.506	-126
9.507	-121
9.508	-117
9.509	-112
9.51	-108
9.511	-103
9.512	-99
9.513	-95
9.514	-101
9.515	-108
9.516	-114
9.517	-120
9.518	-125
9.519	-129
9.52	-133
9.521	-133
9.522	-133
9.523	-133
9.524	-133
9.525	-131
9.526	-130
9.527	-129
9.528	-127
9.529	-125
9.53	-122
9.531	-126
9.532	-131
9.533	-137
9.534	-141
9.535	-142
9.536	-144
9.537	-145
9.538	-140
9.539	-135
9.54	-129
9.541	-125
9.542	-124
9.543	-123
9.544	-122
9.545	-121
9.546	-120
9.547	-118
9.548	-121
9.549	-128
9.55	-135
9.551	-141
9.552	-148
9.553	-155
9.554	-161
9.555	-164
9.556	-162
9.557	-161
9.558	-160
9.559	-159
9.56	-158
9.561	-157
9.562	-156
9.563	-156
9.564	-156
9.565	-158
9.566	-164
9.567	-169
9.568	-175
9.569	-178
9.57	-180
9.571	-182
9.572	-182
9.573	-177
9.574	-173
9.575	-168
9.576	-159
9.577	-149
9.578	-139
9.579	-131
9.58	-127
9.581	-122
9.582	-118
9.583	-124
9.584	-129
9.585	-135
9.586	-136
9.587	-134
9.588	-131
9.589	-129
9.59	-126
9.591	-122
9.592	-119
9.593	-116
9.594	-112
9.595	-109
9.596	-106
9.597	-105
9.598	-104
9.599	-103
9.6	-107
9.601	-112
9.602	-118
9.603	-121
9.604	-120
9.605	-119
9.606	-118
9.607	-116
9.608	-114
9.609	-111
9.61	-110
9.611	-108
9.612	-107
9.613	-106
9.614	-105
9.615	-104
9.616	-103
9.617	-104
9.618	-108
9.619	-111
9.62	-114
9.621	-115
9.622	-116
9.623	-117
9.624	-117
9.625	-116
9.626	-115
9.627	-115
9.628	-119
9.629	-124
9.63	-128
9.631	-135
9.632	-141
9.633	-148
9.634	-155
9.635	-163
9.636	-171
9.637	-179
9.638	-184
9.639	-188
9.64	-193
9.641	-194
9.642	-192
9.643	-190
9.644	-187
9.645	-186
9.646	-185
9.647	-184
9.648	-186
9.649	-191
9.65	-195
9.651	-200
9.652	-204
9.653	-208
9.654	-213
9.655	-215
9.656	-216
9.657	-218
9.658	-217
9.659	-213
9.66	-209
9.661	-204
9.662	-198
9.663	-191
9.664	-184
9.665	-180
9.666	-181
9.667	-182
9.668	-183
9.669	-184
9.67	-184
9.671	-184
9.672	-186
9.673	-193
9.674	-200
9.675	-207
9.676	-222
9.677	-238
9.678	-254
9.679	-270
9.68	-288
9.681	-306
9.682	-325
9.683	-345
9.684	-365
9.685	-385
9.686	-417
9.687	-455
9.688	-492
9.689	-531
9.69	-577
9.691	-621
9.692	-663
9.693	-672
9.694	-670
9.695	-668
9.696	-659
9.697	-633
9.698	-607
9.699	-579
9.7	-557
9.701	-535
9.702	-513
9.703	-487
9.704	-456
9.705	-425
9.706	-394
9.707	-345
9.708	-296
9.709	-247
9.71	-207
9.711	-177
9.712	-146
9.713	-118
9.714	-125
9.715	-132
9.716	-138
9.717	-146
9.718	-154
9.719	-162
9.72	-171
9.721	-186
9.722	-202
9.723	-218
9.724	-230
9.725	-240
9.726	-250
9.727	-256
9.728	-250
9.729	-244
9.73	-239
9.731	-234
9.732	-230
9.733	-225
9.734	-224
9.735	-228
9.736	-233
9.737	-237
9.738	-238
9.739	-238
9.74	-238
9.741	-237
9.742	-236
9.743	-235
9.744	-234
9.745	-232
9.746	-229
9.747	-227
9.748	-226
9.749	-226
9.75	-226
9.751	-227
9.752	-231
9.753	-236
9.754	-240
9.755	-244
9.756	-247
9.757	-251
9.758	-254
9.759	-259
9.76	-263
9.761	-268
9.762	-261
9.763	-250
9.764	-240
9.765	-233
9.766	-229
9.767	-226
9.768	-223
9.769	-226
9.77	-231
9.771	-235
9.772	-240
9.773	-244
9.774	-249
9.775	-253
9.776	-257
9.777	-260
9.778	-263
9.779	-262
9.78	-256
9.781	-250
9.782	-245
9.783	-243
9.784	-241
9.785	-238
9.786	-242
9.787	-247
9.788	-253
9.789	-257
9.79	-257
9.791	-257
9.792	-257
9.793	-262
9.794	-269
9.795	-276
9.796	-278
9.797	-270
9.798	-262
9.799	-254
9.8	-252
9.801	-251
9.802	-250
9.803	-249
9.804	-248
9.805	-247
9.806	-246
9.807	-250
9.808	-254
9.809	-259
9.81	-263
9.811	-266
9.812	-270
9.813	-272
9.814	-269
9.815	-266
9.816	-262
9.817	-260
9.818	-259
9.819	-258
9.82	-258
9.821	-260
9.822	-262
9.823	-264
9.824	-270
9.825	-277
9.826	-284
9.827	-288
9.828	-288
9.829	-288
9.83	-288
9.831	-283
9.832	-278
9.833	-272
9.834	-270
9.835	-272
9.836	-274
9.837	-276
9.838	-279
9.839	-281
9.84	-283
9.841	-285
9.842	-288
9.843	-290
9.844	-292
9.845	-297
9.846	-301
9.847	-306
9.848	-305
9.849	-300
9.85	-296
9.851	-292
9.852	-293
9.853	-294
9.854	-296
9.855	-300
9.856	-306
9.857	-311
9.858	-317
9.859	-321
9.86	-326
9.861	-330
9.862	-335
9.863	-341
9.864	-347
9.865	-347
9.866	-341
9.867	-334
9.868	-327
9.869	-326
9.87	-325
9.871	-323
9.872	-325
9.873	-330
9.874	-334
9.875	-339
9.876	-346
9.877	-352
9.878	-359
9.879	-363
9.88	-365
9.881	-367
9.882	-368
9.883	-357
9.884	-347
9.885	-337
9.886	-335
9.887	-335
9.888	-335
9.889	-336
9.89	-340
9.891	-345
9.892	-349
9.893	-348
9.894	-346
9.895	-344
9.896	-342
9.897	-341
9.898	-340
9.899	-338
9.9	-332
9.901	-325
9.902	-319
9.903	-310
9.904	-300
9.905	-290
9.906	-281
9.907	-287
9.908	-294
9.909	-301
9.91	-300
9.911	-295
9.912	-289
9.913	-284
9.914	-284
9.915	-284
9.916	-284
9.917	-281
9.918	-277
9.919	-272
9.92	-266
9.921	-256
9.922	-246
9.923	-236
9.924	-233
9.925	-232
9.926	-231
9.927	-230
9.928	-228
9.929	-227
9.93	-226
9.931	-223
9.932	-220
9.933	-216
9.934	-213
9.935	-211
9.936	-209
9.937	-207
9.938	-200
9.939	-193
9.94	-186
9.941	-183
9.942	-182
9.943	-181
9.944	-180
9.945	-182
9.946	-184
9.947	-187
9.948	-187
9.949	-186
9.95	-184
9.951	-183
9.952	-179
9.953	-176
9.954	-173
9.955	-168
9.956	-164
9.957	-159
9.958	-156
9.959	-156
9.96	-156
9.961	-156
9.962	-163
9.963	-169
9.964	-176
9.965	-177
9.966	-172
9.967	-166
9.968	-160
9.969	-156
9.97	-151
9.971	-147
9.972	-144
9.973	-141
9.974	-139
9.975	-138
9.976	-143
9.977	-149
9.978	-155
9.979	-158
9.98	-160
9.981	-162
9.982	-164
9.983	-160
9.984	-157
9.985	-153
9.986	-150
9.987	-147
9.988	-143
9.989	-140
9.99	-138
9.991	-136
9.992	-134
9.993	-136
9.994	-140
9.995	-143
9.996	-149
9.997	-158
9.998	-167
9.999	-176
10	-169
10.001	-162
10.002	-156
10.003	-150
10.004	-146
10.005	-141
10.006	-137
10.007	-136
10.008	-135
10.009	-134
10.01	-136
10.011	-141
10.012	-145
10.013	-149
10.014	-149
10.015	-149
10.016	-149
10.017	-147
10.018	-145
10.019	-143
10.02	-142
10.021	-144
10.022	-146
10.023	-148
10.024	-143
10.025	-136
10.026	-130
10.027	-128
10.028	-133
10.029	-139
10.03	-145
10.031	-150
10.032	-156
10.033	-162
10.034	-162
10.035	-157
10.036	-153
10.037	-149
10.038	-145
10.039	-142
10.04	-138
10.041	-136
10.042	-135
10.043	-134
10.044	-135
10.045	-143
10.046	-150
10.047	-158
10.048	-159
10.049	-156
10.05	-154
10.051	-152
10.052	-150
10.053	-147
10.054	-145
10.055	-143
10.056	-141
10.057	-139
10.058	-135
10.059	-131
10.06	-126
10.061	-122
10.062	-132
10.063	-143
10.064	-155
10.065	-161
10.066	-162
10.067	-163
10.068	-164
10.069	-156
10.07	-148
10.071	-140
10.072	-134
10.073	-130
10.074	-125
10.075	-122
10.076	-122
10.077	-122
10.078	-122
10.079	-124
10.08	-127
10.081	-131
10.082	-134
10.083	-139
10.084	-143
10.085	-148
10.086	-149
10.087	-149
10.088	-149
10.089	-146
10.09	-138
10.091	-130
10.092	-122
10.093	-119
10.094	-115
10.095	-112
10.096	-112
10.097	-117
10.098	-121
10.099	-126
10.1	-130
10.101	-135
10.102	-139
10.103	-137
10.104	-130
10.105	-124
10.106	-118
10.107	-117
10.108	-115
10.109	-114
10.11	-114
10.111	-114
10.112	-114
10.113	-116
10.114	-122
10.115	-129
10.116	-136
10.117	-139
10.118	-141
10.119	-143
10.12	-142
10.121	-134
10.122	-126
10.123	-119
10.124	-120
10.125	-122
10.126	-124
10.127	-124
10.128	-121
10.129	-117
10.13	-114
10.131	-118
10.132	-123
10.133	-127
10.134	-129
10.135	-129
10.136	-129
10.137	-129
10.138	-127
10.139	-125
10.14	-122
10.141	-123
10.142	-125
10.143	-128
10.144	-129
10.145	-129
10.146	-129
10.147	-129
10.148	-133
10.149	-137
10.15	-142
10.151	-147
10.152	-152
10.153	-158
10.154	-164
10.155	-159
10.156	-154
10.157	-148
10.158	-143
10.159	-140
10.16	-137
10.161	-133
10.162	-131
10.163	-129
10.164	-127
10.165	-130
10.166	-138
10.167	-146
10.168	-153
10.169	-158
10.17	-162
10.171	-167
10.172	-167
10.173	-166
10.174	-165
10.175	-164
10.176	-164
10.177	-164
10.178	-164
10.179	-164
10.18	-164
10.181	-164
10.182	-165
10.183	-167
10.184	-169
10.185	-172
10.186	-175
10.187	-178
10.188	-182
10.189	-181
10.19	-176
10.191	-170
10.192	-164
10.193	-159
10.194	-153
10.195	-148
10.196	-146
10.197	-148
10.198	-151
10.199	-153
10.2	-153
10.201	-153
10.202	-153
10.203	-149
10.204	-143
10.205	-138
10.206	-133
10.207	-129
10.208	-126
10.209	-123
10.21	-118
10.211	-114
10.212	-109
10.213	-108
10.214	-113
10.215	-119
10.216	-125
10.217	-126
10.218	-126
10.219	-126
10.22	-127
10.221	-130
10.222	-134
10.223	-137
10.224	-129
10.225	-120
10.226	-111
10.227	-103
10.228	-98
10.229	-92
10.23	-87
10.231	-89
10.232	-91
10.233	-93
10.234	-97
10.235	-105
10.236	-113
10.237	-120
10.238	-120
10.239	-118
10.24	-115
10.241	-113
10.242	-111
10.243	-109
10.244	-106
10.245	-102
10.246	-97
10.247	-93
10.248	-91
10.249	-92
10.25	-93
10.251	-94
10.252	-97
10.253	-100
10.254	-104
10.255	-107
10.256	-108
10.257	-109
10.258	-110
10.259	-107
10.26	-104
10.261	-101
10.262	-98
10.263	-95
10.264	-93
10.265	-91
10.266	-92
10.267	-93
10.268	-94
10.269	-95
10.27	-98
10.271	-102
10.272	-105
10.273	-107
10.274	-108
10.275	-109
10.276	-109
10.277	-106
10.278	-103
10.279	-99
10.28	-95
10.281	-91
10.282	-87
10.283	-83
10.284	-86
10.285	-88
10.286	-90
10.287	-88
10.288	-83
10.289	-77
10.29	-72
10.291	-73
10.292	-76
10.293	-78
10.294	-81
10.295	-86
10.296	-92
10.297	-97
10.298	-109
10.299	-125
10.3	-141
10.301	-159
10.302	-184
10.303	-210
10.304	-236
10.305	-258
10.306	-280
10.307	-301
10.308	-328
10.309	-368
10.31	-407
10.311	-446
10.312	-482
10.313	-517
10.314	-552
10.315	-566
10.316	-554
10.317	-542
10.318	-530
10.319	-503
10.32	-475
10.321	-447
10.322	-422
10.323	-398
10.324	-375
10.325	-350
10.326	-311
10.327	-273
10.328	-235
10.329	-191
10.33	-144
10.331	-97
10.332	-56
10.333	-35
10.334	-13
10.335	0
10.336	0
10.337	-5
10.338	-19
10.339	-34
10.34	-49
10.341	-64
10.342	-79
10.343	-92
10.344	-96
10.345	-100
10.346	-105
10.347	-106
10.348	-106
10.349	-106
10.35	-106
10.351	-105
10.352	-104
10.353	-103
10.354	-106
10.355	-110
10.356	-115
10.357	-119
10.358	-124
10.359	-128
10.36	-133
10.361	-128
10.362	-123
10.363	-117
10.364	-114
10.365	-114
10.366	-114
10.367	-114
10.368	-112
10.369	-110
10.37	-107
10.371	-109
10.372	-113
10.373	-118
10.374	-122
10.375	-125
10.376	-129
10.377	-132
10.378	-134
10.379	-135
10.38	-136
10.381	-136
10.382	-130
10.383	-125
10.384	-119
10.385	-116
10.386	-114
10.387	-112
10.388	-112
10.389	-117
10.39	-123
10.391	-129
10.392	-132
10.393	-136
10.394	-139
10.395	-142
10.396	-146
10.397	-149
10.398	-153
10.399	-146
10.4	-139
10.401	-133
10.402	-129
10.403	-129
10.404	-129
10.405	-130
10.406	-133
10.407	-136
10.408	-140
10.409	-142
10.41	-143
10.411	-144
10.412	-145
10.413	-148
10.414	-150
10.415	-152
10.416	-151
10.417	-149
10.418	-146
10.419	-145
10.42	-145
10.421	-145
10.422	-145
10.423	-146
10.424	-147
10.425	-148
10.426	-151
10.427	-157
10.428	-162
10.429	-168
10.43	-167
10.431	-166
10.432	-165
10.433	-164
10.434	-164
10.435	-164
10.436	-164
10.437	-162
10.438	-160
10.439	-157
10.44	-160
10.441	-166
10.442	-171
10.443	-176
10.444	-180
10.445	-183
10.446	-186
10.447	-187
10.448	-187
10.449	-187
10.45	-187
10.451	-186
10.452	-185
10.453	-184
10.454	-183
10.455	-182
10.456	-180
10.457	-181
10.458	-186
10.459	-190
10.46	-195
10.461	-198
10.462	-202
10.463	-205
10.464	-208
10.465	-212
10.466	-215
10.467	-218
10.468	-218
10.469	-218
10.47	-218
10.471	-218
10.472	-218
10.473	-218
10.474	-219
10.475	-226
10.476	-233
10.477	-240
10.478	-243
10.479	-245
10.48	-248
10.481	-250
10.482	-252
10.483	-254
10.484	-257
10.485	-256
10.486	-255
10.487	-254
10.488	-252
10.489	-250
10.49	-248
10.491	-246
10.492	-253
10.493	-261
10.494	-268
10.495	-275
10.496	-281
10.497	-286
10.498	-292
10.499	-292
10.5	-292
10.501	-292
10.502	-292
10.503	-292
10.504	-292
10.505	-291
10.506	-283
10.507	-275
10.508	-267
10.509	-269
10.51	-276
10.511	-283
10.512	-288
10.513	-287
10.514	-286
10.515	-284
10.516	-286
10.517	-288
10.518	-290
10.519	-290
10.52	-284
10.521	-279
10.522	-273
10.523	-272
10.524	-270
10.525	-269
10.526	-270
10.527	-272
10.528	-274
10.529	-276
10.53	-272
10.531	-268
10.532	-263
10.533	-258
10.534	-252
10.535	-247
10.536	-241
10.537	-232
10.538	-223
10.539	-214
10.54	-207
10.541	-201
10.542	-196
10.543	-191
10.544	-191
10.545	-191
10.546	-191
10.547	-190
10.548	-187
10.549	-185
10.55	-182
10.551	-178
10.552	-173
10.553	-169
10.554	-163
10.555	-158
10.556	-152
10.557	-147
10.558	-142
10.559	-138
10.56	-133
10.561	-134
10.562	-135
10.563	-137
10.564	-138
10.565	-141
10.566	-143
10.567	-144
10.568	-139
10.569	-133
10.57	-128
10.571	-124
10.572	-122
10.573	-120
10.574	-117
10.575	-115
10.576	-113
10.577	-111
10.578	-113
10.579	-118
10.58	-122
10.581	-126
10.582	-128
10.583	-131
10.584	-133
10.585	-131
10.586	-129
10.587	-127
10.588	-124
10.589	-121
10.59	-117
10.591	-114
10.592	-112
10.593	-110
10.594	-107
10.595	-108
10.596	-113
10.597	-117
10.598	-122
10.599	-125
10.6	-129
10.601	-132
10.602	-132
10.603	-130
10.604	-127
10.605	-125
10.606	-122
10.607	-118
10.608	-115
10.609	-114
10.61	-114
10.611	-114
10.612	-115
10.613	-120
10.614	-124
10.615	-129
10.616	-129
10.617	-129
10.618	-129
10.619	-128
10.62	-125
10.621	-121
10.622	-118
10.623	-113
10.624	-107
10.625	-101
10.626	-100
10.627	-103
10.628	-107
10.629	-110
10.63	-114
10.631	-117
10.632	-120
10.633	-126
10.634	-132
10.635	-139
10.636	-144
10.637	-140
10.638	-135
10.639	-131
10.64	-129
10.641	-128
10.642	-126
10.643	-125
10.644	-124
10.645	-123
10.646	-122
10.647	-122
10.648	-122
10.649	-122
10.65	-123
10.651	-128
10.652	-132
10.653	-137
10.654	-137
10.655	-137
10.656	-137
10.657	-135
10.658	-131
10.659	-126
10.66	-122
10.661	-123
10.662	-124
10.663	-125
10.664	-129
10.665	-134
10.666	-140
10.667	-145
10.668	-145
10.669	-145
10.67	-145
10.671	-144
10.672	-143
10.673	-142
10.674	-139
10.675	-133
10.676	-126
10.677	-119
10.678	-118
10.679	-118
10.68	-118
10.681	-120
10.682	-128
10.683	-136
10.684	-144
10.685	-147
10.686	-149
10.687	-151
10.688	-150
10.689	-143
10.69	-136
10.691	-129
10.692	-125
10.693	-120
10.694	-116
10.695	-115
10.696	-117
10.697	-120
10.698	-122
10.699	-127
10.7	-131
10.701	-136
10.702	-139
10.703	-143
10.704	-146
10.705	-148
10.706	-142
10.707	-136
10.708	-131
10.709	-127
10.71	-123
10.711	-120
10.712	-119
10.713	-122
10.714	-126
10.715	-129
10.716	-132
10.717	-136
10.718	-139
10.719	-142
10.72	-146
10.721	-149
10.722	-153
10.723	-145
10.724	-137
10.725	-129
10.726	-124
10.727	-120
10.728	-117
10.729	-114
10.73	-114
10.731	-114
10.732	-114
10.733	-116
10.734	-119
10.735	-123
10.736	-126
10.737	-128
10.738	-130
10.739	-133
10.74	-129
10.741	-123
10.742	-118
10.743	-114
10.744	-114
10.745	-114
10.746	-114
10.747	-120
10.748	-126
10.749	-133
10.75	-137
10.751	-137
10.752	-137
10.753	-137
10.754	-141
10.755	-146
10.756	-150
10.757	-150
10.758	-144
10.759	-139
10.76	-133
10.761	-132
10.762	-131
10.763	-130
10.764	-128
10.765	-126
10.766	-124
10.767	-123
10.768	-128
10.769	-134
10.77	-139
10.771	-143
10.772	-147
10.773	-150
10.774	-152
10.775	-150
10.776	-148
10.777	-145
10.778	-143
10.779	-141
10.78	-139
10.781	-138
10.782	-140
10.783	-143
10.784	-145
10.785	-146
10.786	-147
10.787	-148
10.788	-150
10.789	-152
10.79	-154
10.791	-156
10.792	-149
10.793	-143
10.794	-136
10.795	-135
10.796	-139
10.797	-142
10.798	-146
10.799	-153
10.8	-159
10.801	-166
10.802	-172
10.803	-178
10.804	-183
10.805	-187
10.806	-183
10.807	-180
10.808	-176
10.809	-175
10.81	-174
10.811	-173
10.812	-171
10.813	-169
10.814	-167
10.815	-164
10.816	-166
10.817	-169
10.818	-171
10.819	-172
10.82	-172
10.821	-172
10.822	-172
10.823	-173
10.824	-174
10.825	-175
10.826	-171
10.827	-162
10.828	-153
10.829	-144
10.83	-139
10.831	-133
10.832	-127
10.833	-122
10.834	-118
10.835	-114
10.836	-111
10.837	-114
10.838	-118
10.839	-121
10.84	-124
10.841	-128
10.842	-131
10.843	-131
10.844	-126
10.845	-120
10.846	-115
10.847	-114
10.848	-114
10.849	-114
10.85	-113
10.851	-112
10.852	-111
10.853	-110
10.854	-111
10.855	-112
10.856	-113
10.857	-115
10.858	-116
10.859	-117
10.86	-117
10.861	-110
10.862	-104
10.863	-97
10.864	-94
10.865	-93
10.866	-92
10.867	-91
10.868	-94
10.869	-97
10.87	-101
10.871	-104
10.872	-109
10.873	-113
10.874	-118
10.875	-121
10.876	-125
10.877	-128
10.878	-126
10.879	-119
10.88	-112
10.881	-106
10.882	-100
10.883	-94
10.884	-89
10.885	-90
10.886	-96
10.887	-101
10.888	-106
10.889	-109
10.89	-111
10.891	-113
10.892	-114
10.893	-114
10.894	-114
10.895	-114
10.896	-111
10.897	-109
10.898	-107
10.899	-105
10.9	-102
10.901	-100
10.902	-100
10.903	-106
10.904	-111
10.905	-117
10.906	-117
10.907	-116
10.908	-115
10.909	-112
10.91	-106
10.911	-101
10.912	-95
10.913	-91
10.914	-86
10.915	-82
10.916	-76
10.917	-67
10.918	-57
10.919	-47
10.92	-50
10.921	-57
10.922	-65
10.923	-74
10.924	-96
10.925	-119
10.926	-142
10.927	-164
10.928	-184
10.929	-204
10.93	-225
10.931	-251
10.932	-277
10.933	-302
10.934	-332
10.935	-363
10.936	-395
10.937	-431
10.938	-483
10.939	-535
10.94	-586
10.941	-612
10.942	-632
10.943	-651
10.944	-656
10.945	-633
10.946	-610
10.947	-585
10.948	-548
10.949	-509
10.95	-469
10.951	-429
10.952	-387
10.953	-345
10.954	-304
10.955	-253
10.956	-203
10.957	-152
10.958	-112
