0	0.053009
0.001	0.052338
0.002	0.051667
0.003	0.050996
0.004	0.050996
0.005	0.050996
0.006	0.050996
0.007	0.050996
0.008	0.050996
0.009	0.050996
0.01	0.050996
0.011	0.050325
0.012	0.049654
0.013	0.048983
0.014	0.047641
0.015	0.045628
0.016	0.044286
0.017	0.042944
0.018	0.042273
0.019	0.041602
0.02	0.040931
0.021	0.04026
0.022	0.039589
0.023	0.038247
0.024	0.038247
0.025	0.038247
0.026	0.038247
0.027	0.038247
0.028	0.038918
0.029	0.039589
0.03	0.04026
0.031	0.04026
0.032	0.039589
0.033	0.038918
0.034	0.038247
0.035	0.037576
0.036	0.036234
0.037	0.035563
0.038	0.034892
0.039	0.034221
0.04	0.03355
0.041	0.032879
0.042	0.030866
0.043	0.029524
0.044	0.028182
0.045	0.02684
0.046	0.024827
0.047	0.023485
0.048	0.022143
0.049	0.020801
0.05	0.018788
0.051	0.017446
0.052	0.015433
0.053	0.012749
0.054	0.010736
0.055	0.008723
0.056	0.006039
0.057	0.004026
0.058	0.002013
0.059	-0.000671
0.06	-0.002684
0.061	-0.004697
0.062	-0.00671
0.063	-0.007381
0.064	-0.008052
0.065	-0.008723
0.066	-0.008723
0.067	-0.008723
0.068	-0.008723
0.069	-0.009394
0.07	-0.010065
0.071	-0.010736
0.072	-0.011407
0.073	-0.01342
0.074	-0.014762
0.075	-0.016104
0.076	-0.018788
0.077	-0.022143
0.078	-0.024827
0.079	-0.028182
0.08	-0.030866
0.081	-0.034221
0.082	-0.036905
0.083	-0.039589
0.084	-0.041602
0.085	-0.043615
0.086	-0.045628
0.087	-0.04697
0.088	-0.048983
0.089	-0.050325
0.09	-0.051667
0.091	-0.053009
0.092	-0.055022
0.093	-0.055693
0.094	-0.056364
0.095	-0.057706
0.096	-0.058377
0.097	-0.058377
0.098	-0.058377
0.099	-0.058377
0.1	-0.057706
0.101	-0.057035
0.102	-0.055693
0.103	-0.055022
0.104	-0.054351
0.105	-0.05368
0.106	-0.053009
0.107	-0.051667
0.108	-0.050325
0.109	-0.048312
0.11	-0.047641
0.111	-0.046299
0.112	-0.045628
0.113	-0.044957
0.114	-0.044957
0.115	-0.044957
0.116	-0.044957
0.117	-0.044957
0.118	-0.043615
0.119	-0.042944
0.12	-0.042273
0.121	-0.040931
0.122	-0.039589
0.123	-0.037576
0.124	-0.034892
0.125	-0.032208
0.126	-0.028853
0.127	-0.026169
0.128	-0.022143
0.129	-0.018117
0.13	-0.014762
0.131	-0.010736
0.132	-0.007381
0.133	-0.003355
0.134	0
0.135	0.002013
0.136	0.004697
0.137	0.00671
0.138	0.008052
0.139	0.010065
0.14	0.011407
0.141	0.012749
0.142	0.014091
0.143	0.016104
0.144	0.017446
0.145	0.019459
0.146	0.022143
0.147	0.024156
0.148	0.02684
0.149	0.030195
0.15	0.032879
0.151	0.035563
0.152	0.036905
0.153	0.038918
0.154	0.04026
0.155	0.04026
0.156	0.039589
0.157	0.038247
0.158	0.036905
0.159	0.032879
0.16	0.029524
0.161	0.025498
0.162	0.02013
0.163	0.014762
0.164	0.010065
0.165	0.005368
0.166	0.001342
0.167	-0.002684
0.168	-0.006039
0.169	-0.007381
0.17	-0.009394
0.171	-0.010736
0.172	-0.010736
0.173	-0.010065
0.174	-0.009394
0.175	-0.008723
0.176	-0.008052
0.177	-0.007381
0.178	-0.006039
0.179	-0.006039
0.18	-0.006039
0.181	-0.006039
0.182	-0.006039
0.183	-0.007381
0.184	-0.008052
0.185	-0.008723
0.186	-0.010065
0.187	-0.011407
0.188	-0.012749
0.189	-0.014762
0.19	-0.016104
0.191	-0.017446
0.192	-0.018788
0.193	-0.018788
0.194	-0.018788
0.195	-0.018788
0.196	-0.019459
0.197	-0.02013
0.198	-0.020801
0.199	-0.022143
0.2	-0.022814
0.201	-0.023485
0.202	-0.024156
0.203	-0.024827
0.204	-0.025498
0.205	-0.026169
0.206	-0.02684
0.207	-0.028182
0.208	-0.028853
0.209	-0.029524
0.21	-0.029524
0.211	-0.029524
0.212	-0.029524
0.213	-0.029524
0.214	-0.029524
0.215	-0.029524
0.216	-0.029524
0.217	-0.028853
0.218	-0.028182
0.219	-0.027511
0.22	-0.02684
0.221	-0.025498
0.222	-0.024827
0.223	-0.024156
0.224	-0.024156
0.225	-0.024156
0.226	-0.024156
0.227	-0.024827
0.228	-0.025498
0.229	-0.026169
0.23	-0.02684
0.231	-0.027511
0.232	-0.028853
0.233	-0.029524
0.234	-0.030195
0.235	-0.030866
0.236	-0.031537
0.237	-0.032208
0.238	-0.032208
0.239	-0.032208
0.24	-0.032208
0.241	-0.031537
0.242	-0.030866
0.243	-0.030195
0.244	-0.029524
0.245	-0.029524
0.246	-0.029524
0.247	-0.029524
0.248	-0.028853
0.249	-0.028182
0.25	-0.027511
0.251	-0.02684
0.252	-0.02684
0.253	-0.02684
0.254	-0.02684
0.255	-0.02684
0.256	-0.02684
0.257	-0.02684
0.258	-0.026169
0.259	-0.025498
0.26	-0.024827
0.261	-0.024156
0.262	-0.024156
0.263	-0.024156
0.264	-0.024156
0.265	-0.024827
0.266	-0.025498
0.267	-0.026169
0.268	-0.027511
0.269	-0.028182
0.27	-0.028853
0.271	-0.029524
0.272	-0.030195
0.273	-0.030866
0.274	-0.031537
0.275	-0.032208
0.276	-0.032208
0.277	-0.032208
0.278	-0.032208
0.279	-0.031537
0.28	-0.030195
0.281	-0.029524
0.282	-0.028853
0.283	-0.028182
0.284	-0.027511
0.285	-0.02684
0.286	-0.026169
0.287	-0.025498
0.288	-0.024156
0.289	-0.023485
0.29	-0.022814
0.291	-0.022143
0.292	-0.021472
0.293	-0.020801
0.294	-0.02013
0.295	-0.019459
0.296	-0.018788
0.297	-0.018788
0.298	-0.018788
0.299	-0.018788
0.3	-0.018788
0.301	-0.018788
0.302	-0.018788
0.303	-0.018117
0.304	-0.017446
0.305	-0.016775
0.306	-0.016104
0.307	-0.015433
0.308	-0.014762
0.309	-0.014091
0.31	-0.012749
0.311	-0.012078
0.312	-0.011407
0.313	-0.010736
0.314	-0.010065
0.315	-0.009394
0.316	-0.008723
0.317	-0.008052
0.318	-0.00671
0.319	-0.006039
0.32	-0.00671
0.321	-0.007381
0.322	-0.008052
0.323	-0.009394
0.324	-0.010736
0.325	-0.012078
0.326	-0.014091
0.327	-0.014762
0.328	-0.015433
0.329	-0.016104
0.33	-0.016775
0.331	-0.016775
0.332	-0.016775
0.333	-0.016775
0.334	-0.016775
0.335	-0.016775
0.336	-0.016775
0.337	-0.016775
0.338	-0.016775
0.339	-0.016775
0.34	-0.016775
0.341	-0.017446
0.342	-0.018117
0.343	-0.018788
0.344	-0.018788
0.345	-0.018788
0.346	-0.018788
0.347	-0.018788
0.348	-0.016775
0.349	-0.015433
0.35	-0.014091
0.351	-0.012749
0.352	-0.010736
0.353	-0.009394
0.354	-0.008052
0.355	-0.00671
0.356	-0.004697
0.357	-0.003355
0.358	-0.003355
0.359	-0.003355
0.36	-0.003355
0.361	-0.004697
0.362	-0.007381
0.363	-0.009394
0.364	-0.011407
0.365	-0.012078
0.366	-0.012749
0.367	-0.01342
0.368	-0.014762
0.369	-0.015433
0.37	-0.016104
0.371	-0.016104
0.372	-0.014762
0.373	-0.012749
0.374	-0.011407
0.375	-0.010065
0.376	-0.008723
0.377	-0.00671
0.378	-0.00671
0.379	-0.007381
0.38	-0.008052
0.381	-0.008723
0.382	-0.009394
0.383	-0.010065
0.384	-0.010736
0.385	-0.012749
0.386	-0.014762
0.387	-0.017446
0.388	-0.019459
0.389	-0.020801
0.39	-0.022143
0.391	-0.024156
0.392	-0.024156
0.393	-0.024156
0.394	-0.024156
0.395	-0.024156
0.396	-0.024156
0.397	-0.024156
0.398	-0.024156
0.399	-0.024156
0.4	-0.024156
0.401	-0.024156
0.402	-0.024156
0.403	-0.023485
0.404	-0.022814
0.405	-0.021472
0.406	-0.02013
0.407	-0.018788
0.408	-0.017446
0.409	-0.016104
0.41	-0.015433
0.411	-0.014762
0.412	-0.014091
0.413	-0.015433
0.414	-0.016775
0.415	-0.018788
0.416	-0.02013
0.417	-0.021472
0.418	-0.022814
0.419	-0.024827
0.42	-0.02684
0.421	-0.029524
0.422	-0.031537
0.423	-0.03355
0.424	-0.034892
0.425	-0.036234
0.426	-0.036905
0.427	-0.035563
0.428	-0.03355
0.429	-0.032208
0.43	-0.030866
0.431	-0.029524
0.432	-0.027511
0.433	-0.026169
0.434	-0.023485
0.435	-0.021472
0.436	-0.018788
0.437	-0.017446
0.438	-0.016104
0.439	-0.014762
0.44	-0.01342
0.441	-0.012749
0.442	-0.012078
0.443	-0.010736
0.444	-0.008723
0.445	-0.00671
0.446	-0.004026
0.447	-0.002684
0.448	-0.000671
0.449	0.000671
0.45	0.002013
0.451	0.002684
0.452	0.003355
0.453	0.004026
0.454	0.003355
0.455	0.002684
0.456	0.002013
0.457	0.001342
0.458	0.000671
0.459	0
0.46	-0.000671
0.461	-0.001342
0.462	-0.002684
0.463	-0.003355
0.464	-0.003355
0.465	-0.003355
0.466	-0.003355
0.467	-0.003355
0.468	-0.002684
0.469	-0.002013
0.47	-0.001342
0.471	-0.000671
0.472	-0.000671
0.473	-0.000671
0.474	-0.000671
0.475	0
0.476	0.000671
0.477	0.001342
0.478	0.002013
0.479	0.002684
0.48	0.004026
0.481	0.004697
0.482	0.006039
0.483	0.008052
0.484	0.009394
0.485	0.010065
0.486	0.010736
0.487	0.011407
0.488	0.012078
0.489	0.012078
0.49	0.012078
0.491	0.012078
0.492	0.012078
0.493	0.012078
0.494	0.012078
0.495	0.012078
0.496	0.012078
0.497	0.012078
0.498	0.012078
0.499	0.012749
0.5	0.01342
0.501	0.014762
0.502	0.016104
0.503	0.017446
0.504	0.018788
0.505	0.02013
0.506	0.020801
0.507	0.021472
0.508	0.022143
0.509	0.022143
0.51	0.022143
0.511	0.022143
0.512	0.022143
0.513	0.021472
0.514	0.020801
0.515	0.02013
0.516	0.020801
0.517	0.021472
0.518	0.022143
0.519	0.023485
0.52	0.024827
0.521	0.026169
0.522	0.027511
0.523	0.028182
0.524	0.029524
0.525	0.030195
0.526	0.02684
0.527	0.022143
0.528	0.018117
0.529	0.010736
0.53	-0.002684
0.531	-0.016104
0.532	-0.029524
0.533	-0.050325
0.534	-0.071797
0.535	-0.09394
0.536	-0.117425
0.537	-0.142923
0.538	-0.168421
0.539	-0.193248
0.54	-0.21472
0.541	-0.235521
0.542	-0.255651
0.543	-0.271084
0.544	-0.282491
0.545	-0.292556
0.546	-0.30195
0.547	-0.299266
0.548	-0.297253
0.549	-0.294569
0.55	-0.284504
0.551	-0.269071
0.552	-0.253638
0.553	-0.235521
0.554	-0.20801
0.555	-0.179828
0.556	-0.151646
0.557	-0.122122
0.558	-0.090585
0.559	-0.059719
0.56	-0.031537
0.561	-0.007381
0.562	0.016775
0.563	0.041602
0.564	0.05368
0.565	0.065087
0.566	0.076494
0.567	0.081862
0.568	0.081191
0.569	0.08052
0.57	0.079178
0.571	0.071797
0.572	0.063745
0.573	0.056364
0.574	0.048983
0.575	0.041602
0.576	0.03355
0.577	0.02684
0.578	0.022814
0.579	0.019459
0.58	0.015433
0.581	0.015433
0.582	0.016104
0.583	0.016775
0.584	0.018117
0.585	0.02013
0.586	0.022814
0.587	0.024827
0.588	0.025498
0.589	0.026169
0.59	0.027511
0.591	0.027511
0.592	0.027511
0.593	0.027511
0.594	0.027511
0.595	0.02684
0.596	0.026169
0.597	0.025498
0.598	0.024827
0.599	0.024827
0.6	0.024827
0.601	0.024827
0.602	0.026169
0.603	0.02684
0.604	0.027511
0.605	0.028182
0.606	0.028853
0.607	0.029524
0.608	0.030195
0.609	0.030195
0.61	0.030195
0.611	0.030195
0.612	0.030195
0.613	0.030195
0.614	0.030195
0.615	0.030195
0.616	0.029524
0.617	0.028182
0.618	0.027511
0.619	0.02684
0.62	0.026169
0.621	0.025498
0.622	0.024827
0.623	0.024156
0.624	0.023485
0.625	0.022143
0.626	0.021472
0.627	0.020801
0.628	0.02013
0.629	0.02013
0.63	0.02013
0.631	0.02013
0.632	0.02013
0.633	0.02013
0.634	0.02013
0.635	0.02013
0.636	0.02013
0.637	0.02013
0.638	0.02013
0.639	0.02013
0.64	0.020801
0.641	0.021472
0.642	0.022143
0.643	0.022143
0.644	0.022143
0.645	0.022143
0.646	0.022143
0.647	0.021472
0.648	0.020801
0.649	0.02013
0.65	0.018788
0.651	0.018117
0.652	0.017446
0.653	0.016104
0.654	0.014762
0.655	0.01342
0.656	0.012078
0.657	0.012078
0.658	0.012078
0.659	0.012078
0.66	0.012078
0.661	0.012078
0.662	0.012078
0.663	0.012078
0.664	0.012078
0.665	0.012078
0.666	0.012078
0.667	0.012078
0.668	0.012078
0.669	0.012078
0.67	0.011407
0.671	0.010065
0.672	0.008723
0.673	0.00671
0.674	0.005368
0.675	0.004026
0.676	0.002684
0.677	0.000671
0.678	-0.000671
0.679	-0.002013
0.68	-0.003355
0.681	-0.004026
0.682	-0.005368
0.683	-0.006039
0.684	-0.00671
0.685	-0.007381
0.686	-0.008052
0.687	-0.008723
0.688	-0.010736
0.689	-0.012078
0.69	-0.01342
0.691	-0.015433
0.692	-0.016775
0.693	-0.018117
0.694	-0.02013
0.695	-0.022143
0.696	-0.024156
0.697	-0.02684
0.698	-0.027511
0.699	-0.028182
0.7	-0.028853
0.701	-0.030195
0.702	-0.030866
0.703	-0.031537
0.704	-0.032208
0.705	-0.032208
0.706	-0.032208
0.707	-0.032208
0.708	-0.032879
0.709	-0.03355
0.71	-0.034221
0.711	-0.034892
0.712	-0.036234
0.713	-0.038247
0.714	-0.039589
0.715	-0.041602
0.716	-0.043615
0.717	-0.046299
0.718	-0.048312
0.719	-0.050996
0.72	-0.053009
0.721	-0.055022
0.722	-0.057706
0.723	-0.059719
0.724	-0.061732
0.725	-0.063745
0.726	-0.064416
0.727	-0.065087
0.728	-0.065758
0.729	-0.066429
0.73	-0.0671
0.731	-0.068442
0.732	-0.068442
0.733	-0.068442
0.734	-0.068442
0.735	-0.068442
0.736	-0.069113
0.737	-0.069784
0.738	-0.071126
0.739	-0.071797
0.74	-0.072468
0.741	-0.073139
0.742	-0.07381
0.743	-0.075823
0.744	-0.077165
0.745	-0.078507
0.746	-0.079849
0.747	-0.081862
0.748	-0.083204
0.749	-0.083875
0.75	-0.083204
0.751	-0.081862
0.752	-0.081191
0.753	-0.079178
0.754	-0.077165
0.755	-0.074481
0.756	-0.071126
0.757	-0.067771
0.758	-0.063745
0.759	-0.06039
0.76	-0.058377
0.761	-0.055693
0.762	-0.05368
0.763	-0.051667
0.764	-0.050325
0.765	-0.048983
0.766	-0.04697
0.767	-0.045628
0.768	-0.044286
0.769	-0.042944
0.77	-0.04026
0.771	-0.036905
0.772	-0.034221
0.773	-0.030195
0.774	-0.025498
0.775	-0.021472
0.776	-0.016775
0.777	-0.012078
0.778	-0.007381
0.779	-0.003355
0.78	0.000671
0.781	0.004026
0.782	0.00671
0.783	0.009394
0.784	0.009394
0.785	0.009394
0.786	0.009394
0.787	0.009394
0.788	0.009394
0.789	0.009394
0.79	0.009394
0.791	0.010065
0.792	0.011407
0.793	0.012078
0.794	0.014091
0.795	0.016104
0.796	0.018117
0.797	0.020801
0.798	0.022814
0.799	0.025498
0.8	0.027511
0.801	0.028853
0.802	0.030866
0.803	0.032208
0.804	0.032879
0.805	0.032879
0.806	0.032879
0.807	0.032879
0.808	0.032879
0.809	0.032879
0.81	0.032879
0.811	0.03355
0.812	0.034221
0.813	0.034892
0.814	0.035563
0.815	0.038247
0.816	0.04026
0.817	0.042944
0.818	0.043615
0.819	0.044286
0.82	0.045628
0.821	0.046299
0.822	0.04697
0.823	0.047641
0.824	0.048312
0.825	0.04697
0.826	0.045628
0.827	0.044286
0.828	0.042273
0.829	0.040931
0.83	0.039589
0.831	0.038247
0.832	0.037576
0.833	0.036234
0.834	0.035563
0.835	0.035563
0.836	0.035563
0.837	0.035563
0.838	0.035563
0.839	0.035563
0.84	0.035563
0.841	0.035563
0.842	0.035563
0.843	0.035563
0.844	0.035563
0.845	0.035563
0.846	0.035563
0.847	0.035563
0.848	0.035563
0.849	0.036234
0.85	0.036905
0.851	0.037576
0.852	0.038247
0.853	0.038918
0.854	0.039589
0.855	0.040931
0.856	0.040931
0.857	0.040931
0.858	0.040931
0.859	0.04026
0.86	0.039589
0.861	0.038918
0.862	0.038247
0.863	0.036905
0.864	0.036234
0.865	0.035563
0.866	0.034892
0.867	0.034221
0.868	0.03355
0.869	0.032879
0.87	0.03355
0.871	0.034221
0.872	0.035563
0.873	0.036234
0.874	0.036905
0.875	0.037576
0.876	0.038247
0.877	0.038247
0.878	0.038247
0.879	0.038247
0.88	0.038247
0.881	0.038247
0.882	0.038247
0.883	0.038247
0.884	0.038918
0.885	0.039589
0.886	0.040931
0.887	0.040931
0.888	0.040931
0.889	0.040931
0.89	0.040931
0.891	0.041602
0.892	0.042273
0.893	0.042944
0.894	0.042944
0.895	0.042944
0.896	0.042944
0.897	0.042944
0.898	0.041602
0.899	0.040931
0.9	0.04026
0.901	0.038918
0.902	0.036905
0.903	0.035563
0.904	0.034892
0.905	0.034221
0.906	0.03355
0.907	0.032879
0.908	0.034221
0.909	0.034892
0.91	0.035563
0.911	0.036234
0.912	0.036905
0.913	0.037576
0.914	0.038247
0.915	0.038247
0.916	0.038247
0.917	0.038247
0.918	0.036905
0.919	0.036234
0.92	0.035563
0.921	0.034892
0.922	0.034221
0.923	0.03355
0.924	0.032208
0.925	0.030866
0.926	0.029524
0.927	0.028182
0.928	0.02684
0.929	0.026169
0.93	0.025498
0.931	0.024827
0.932	0.024827
0.933	0.024827
0.934	0.024827
0.935	0.024827
0.936	0.024827
0.937	0.024827
0.938	0.024827
0.939	0.024827
0.94	0.024827
0.941	0.024827
0.942	0.024827
0.943	0.024827
0.944	0.024827
0.945	0.024827
0.946	0.024156
0.947	0.022814
0.948	0.022814
0.949	0.023485
0.95	0.024156
0.951	0.024827
0.952	0.024827
0.953	0.024827
0.954	0.024827
0.955	0.025498
0.956	0.02684
0.957	0.028853
0.958	0.030195
0.959	0.030866
0.96	0.031537
0.961	0.032208
0.962	0.032879
0.963	0.032879
0.964	0.032879
0.965	0.032879
0.966	0.032879
0.967	0.032879
0.968	0.032879
0.969	0.032879
0.97	0.032879
0.971	0.032879
0.972	0.032879
0.973	0.032879
0.974	0.032879
0.975	0.032879
0.976	0.03355
0.977	0.034221
0.978	0.034892
0.979	0.035563
0.98	0.036234
0.981	0.036905
0.982	0.037576
0.983	0.038918
0.984	0.039589
0.985	0.04026
0.986	0.04026
0.987	0.039589
0.988	0.038918
0.989	0.038247
0.99	0.038247
0.991	0.038247
0.992	0.038247
0.993	0.038247
0.994	0.038247
0.995	0.038247
0.996	0.038247
0.997	0.038247
0.998	0.038247
0.999	0.038247
1	0.038247
1.001	0.038247
1.002	0.038247
1.003	0.038247
1.004	0.038247
1.005	0.038247
1.006	0.038247
1.007	0.037576
1.008	0.036905
1.009	0.036234
1.01	0.034892
1.011	0.034221
1.012	0.03355
1.013	0.032879
1.014	0.032208
1.015	0.031537
1.016	0.030866
1.017	0.030195
1.018	0.028853
1.019	0.028182
1.02	0.027511
1.021	0.02684
1.022	0.026169
1.023	0.025498
1.024	0.024827
1.025	0.024156
1.026	0.022814
1.027	0.022143
1.028	0.021472
1.029	0.020801
1.03	0.02013
1.031	0.019459
1.032	0.018788
1.033	0.018117
1.034	0.017446
1.035	0.017446
1.036	0.017446
1.037	0.017446
1.038	0.017446
1.039	0.017446
1.04	0.017446
1.041	0.017446
1.042	0.017446
1.043	0.017446
1.044	0.017446
1.045	0.018117
1.046	0.018788
1.047	0.019459
1.048	0.02013
1.049	0.020801
1.05	0.021472
1.051	0.022814
1.052	0.023485
1.053	0.024156
1.054	0.024827
1.055	0.024827
1.056	0.024156
1.057	0.022814
1.058	0.022143
1.059	0.021472
1.06	0.020801
1.061	0.02013
1.062	0.018117
1.063	0.016104
1.064	0.01342
1.065	0.011407
1.066	0.010065
1.067	0.008723
1.068	0.007381
1.069	0.00671
1.07	0.00671
1.071	0.00671
1.072	0.007381
1.073	0.008052
1.074	0.008723
1.075	0.009394
1.076	0.010736
1.077	0.012749
1.078	0.014091
1.079	0.015433
1.08	0.016775
1.081	0.018788
1.082	0.02013
1.083	0.021472
1.084	0.022814
1.085	0.024827
1.086	0.026169
1.087	0.027511
1.088	0.028853
1.089	0.030866
1.09	0.032879
1.091	0.035563
1.092	0.037576
1.093	0.04026
1.094	0.042273
1.095	0.044286
1.096	0.046299
1.097	0.04697
1.098	0.047641
1.099	0.048312
1.1	0.048312
1.101	0.048312
1.102	0.048312
1.103	0.048312
1.104	0.04697
1.105	0.046299
1.106	0.045628
1.107	0.045628
1.108	0.045628
1.109	0.045628
1.11	0.045628
1.111	0.045628
1.112	0.045628
1.113	0.045628
1.114	0.045628
1.115	0.045628
1.116	0.045628
1.117	0.045628
1.118	0.045628
1.119	0.045628
1.12	0.045628
1.121	0.045628
1.122	0.045628
1.123	0.045628
1.124	0.046299
1.125	0.04697
1.126	0.048312
1.127	0.048983
1.128	0.050996
1.129	0.052338
1.13	0.05368
1.131	0.054351
1.132	0.055022
1.133	0.055693
1.134	0.056364
1.135	0.056364
1.136	0.056364
1.137	0.055693
1.138	0.054351
1.139	0.053009
1.14	0.051667
1.141	0.050996
1.142	0.050996
1.143	0.050996
1.144	0.050996
1.145	0.052338
1.146	0.053009
1.147	0.05368
1.148	0.055022
1.149	0.056364
1.15	0.057706
1.151	0.059048
1.152	0.059719
1.153	0.06039
1.154	0.061061
1.155	0.061732
1.156	0.061732
1.157	0.061732
1.158	0.061732
1.159	0.061732
1.16	0.061732
1.161	0.061732
1.162	0.063074
1.163	0.064416
1.164	0.066429
1.165	0.068442
1.166	0.070455
1.167	0.072468
1.168	0.07381
1.169	0.072468
1.17	0.071126
1.171	0.069784
1.172	0.061061
1.173	0.051667
1.174	0.041602
1.175	0.028853
1.176	0.011407
1.177	-0.006039
1.178	-0.022814
1.179	-0.047641
1.18	-0.072468
1.181	-0.097295
1.182	-0.122793
1.183	-0.148291
1.184	-0.173789
1.185	-0.198616
1.186	-0.218075
1.187	-0.237534
1.188	-0.256322
1.189	-0.2684
1.19	-0.277123
1.191	-0.285175
1.192	-0.290543
1.193	-0.285846
1.194	-0.280478
1.195	-0.27511
1.196	-0.259006
1.197	-0.238876
1.198	-0.218075
1.199	-0.193919
1.2	-0.163053
1.201	-0.131516
1.202	-0.099308
1.203	-0.0671
1.204	-0.034892
1.205	-0.002013
1.206	0.024156
1.207	0.044957
1.208	0.065087
1.209	0.085217
1.21	0.090585
1.211	0.095953
1.212	0.10065
1.213	0.099308
1.214	0.092598
1.215	0.085217
1.216	0.078507
1.217	0.069113
1.218	0.06039
1.219	0.050996
1.22	0.045628
1.221	0.042273
1.222	0.038247
1.223	0.035563
1.224	0.037576
1.225	0.038918
1.226	0.04026
1.227	0.042944
1.228	0.046299
1.229	0.048983
1.23	0.051667
1.231	0.054351
1.232	0.056364
1.233	0.058377
1.234	0.058377
1.235	0.057035
1.236	0.056364
1.237	0.055693
1.238	0.05368
1.239	0.052338
1.24	0.050996
1.241	0.050325
1.242	0.049654
1.243	0.048983
1.244	0.048312
1.245	0.048312
1.246	0.048312
1.247	0.048312
1.248	0.048312
1.249	0.048312
1.25	0.048312
1.251	0.047641
1.252	0.04697
1.253	0.046299
1.254	0.045628
1.255	0.044957
1.256	0.044286
1.257	0.043615
1.258	0.042273
1.259	0.041602
1.26	0.040931
1.261	0.040931
1.262	0.041602
1.263	0.042273
1.264	0.042944
1.265	0.042944
1.266	0.042944
1.267	0.042944
1.268	0.042944
1.269	0.042273
1.27	0.041602
1.271	0.04026
1.272	0.038918
1.273	0.037576
1.274	0.036234
1.275	0.034221
1.276	0.032879
1.277	0.031537
1.278	0.030195
1.279	0.029524
1.28	0.028853
1.281	0.027511
1.282	0.02684
1.283	0.026169
1.284	0.025498
1.285	0.024827
1.286	0.024156
1.287	0.023485
1.288	0.022814
1.289	0.021472
1.29	0.020801
1.291	0.02013
1.292	0.018788
1.293	0.017446
1.294	0.016104
1.295	0.014762
1.296	0.014762
1.297	0.014762
1.298	0.014762
1.299	0.015433
1.3	0.016104
1.301	0.016775
1.302	0.017446
1.303	0.017446
1.304	0.017446
1.305	0.017446
1.306	0.017446
1.307	0.017446
1.308	0.017446
1.309	0.016775
1.31	0.015433
1.311	0.01342
1.312	0.012078
1.313	0.010065
1.314	0.008052
1.315	0.005368
1.316	0.003355
1.317	0.002013
1.318	0.000671
1.319	-0.000671
1.32	-0.002013
1.321	-0.002684
1.322	-0.003355
1.323	-0.003355
1.324	-0.003355
1.325	-0.003355
1.326	-0.003355
1.327	-0.002684
1.328	-0.002013
1.329	-0.001342
1.33	-0.000671
1.331	0.000671
1.332	0.001342
1.333	0.001342
1.334	0.000671
1.335	0
1.336	-0.000671
1.337	-0.002013
1.338	-0.003355
1.339	-0.005368
1.34	-0.007381
1.341	-0.010065
1.342	-0.01342
1.343	-0.016104
1.344	-0.02013
1.345	-0.023485
1.346	-0.027511
1.347	-0.030866
1.348	-0.032879
1.349	-0.034892
1.35	-0.037576
1.351	-0.038918
1.352	-0.04026
1.353	-0.041602
1.354	-0.043615
1.355	-0.044957
1.356	-0.046299
1.357	-0.047641
1.358	-0.049654
1.359	-0.050996
1.36	-0.052338
1.361	-0.054351
1.362	-0.057035
1.363	-0.059048
1.364	-0.061061
1.365	-0.063745
1.366	-0.065758
1.367	-0.068442
1.368	-0.070455
1.369	-0.072468
1.37	-0.075152
1.371	-0.076494
1.372	-0.077165
1.373	-0.077836
1.374	-0.078507
1.375	-0.078507
1.376	-0.078507
1.377	-0.078507
1.378	-0.079849
1.379	-0.081191
1.38	-0.082533
1.381	-0.083875
1.382	-0.083875
1.383	-0.083875
1.384	-0.083875
1.385	-0.083875
1.386	-0.083875
1.387	-0.083875
1.388	-0.083875
1.389	-0.081862
1.39	-0.08052
1.391	-0.079178
1.392	-0.077165
1.393	-0.074481
1.394	-0.072468
1.395	-0.070455
1.396	-0.069113
1.397	-0.0671
1.398	-0.065758
1.399	-0.065758
1.4	-0.065758
1.401	-0.065758
1.402	-0.065758
1.403	-0.065758
1.404	-0.065758
1.405	-0.065758
1.406	-0.064416
1.407	-0.062403
1.408	-0.061061
1.409	-0.058377
1.41	-0.055693
1.411	-0.052338
1.412	-0.048983
1.413	-0.043615
1.414	-0.038247
1.415	-0.032879
1.416	-0.028182
1.417	-0.024156
1.418	-0.019459
1.419	-0.015433
1.42	-0.01342
1.421	-0.011407
1.422	-0.008723
1.423	-0.008052
1.424	-0.007381
1.425	-0.00671
1.426	-0.006039
1.427	-0.004697
1.428	-0.004026
1.429	-0.003355
1.43	-0.002013
1.431	-0.000671
1.432	0.001342
1.433	0.003355
1.434	0.00671
1.435	0.009394
1.436	0.012749
1.437	0.015433
1.438	0.018788
1.439	0.021472
1.44	0.023485
1.441	0.024827
1.442	0.02684
1.443	0.028182
1.444	0.028853
1.445	0.029524
1.446	0.030195
1.447	0.030195
1.448	0.030195
1.449	0.030195
1.45	0.030866
1.451	0.031537
1.452	0.032208
1.453	0.032879
1.454	0.034221
1.455	0.035563
1.456	0.037576
1.457	0.038247
1.458	0.038918
1.459	0.04026
1.46	0.040931
1.461	0.041602
1.462	0.042273
1.463	0.042944
1.464	0.042944
1.465	0.041602
1.466	0.040931
1.467	0.04026
1.468	0.039589
1.469	0.038918
1.47	0.038247
1.471	0.038247
1.472	0.038247
1.473	0.038247
1.474	0.037576
1.475	0.036905
1.476	0.036234
1.477	0.035563
1.478	0.036234
1.479	0.036905
1.48	0.037576
1.481	0.038247
1.482	0.038247
1.483	0.038247
1.484	0.038247
1.485	0.038247
1.486	0.038247
1.487	0.038247
1.488	0.038247
1.489	0.039589
1.49	0.04026
1.491	0.040931
1.492	0.040931
1.493	0.040931
1.494	0.040931
1.495	0.040931
1.496	0.042273
1.497	0.042944
1.498	0.042944
1.499	0.042944
1.5	0.042944
1.501	0.042944
1.502	0.043615
1.503	0.044957
1.504	0.045628
1.505	0.046299
1.506	0.048312
1.507	0.049654
1.508	0.050996
1.509	0.051667
1.51	0.052338
1.511	0.053009
1.512	0.054351
1.513	0.055022
1.514	0.055693
1.515	0.056364
1.516	0.055022
1.517	0.054351
1.518	0.05368
1.519	0.052338
1.52	0.050996
1.521	0.049654
1.522	0.047641
1.523	0.046299
1.524	0.044957
1.525	0.043615
1.526	0.042273
1.527	0.041602
1.528	0.040931
1.529	0.040931
1.53	0.040931
1.531	0.040931
1.532	0.040931
1.533	0.041602
1.534	0.042273
1.535	0.042944
1.536	0.042944
1.537	0.042944
1.538	0.042944
1.539	0.042944
1.54	0.042273
1.541	0.041602
1.542	0.040931
1.543	0.04026
1.544	0.039589
1.545	0.038247
1.546	0.037576
1.547	0.036905
1.548	0.036234
1.549	0.035563
1.55	0.036234
1.551	0.036905
1.552	0.037576
1.553	0.038247
1.554	0.038918
1.555	0.039589
1.556	0.040931
1.557	0.041602
1.558	0.042273
1.559	0.042944
1.56	0.043615
1.561	0.044286
1.562	0.044957
1.563	0.045628
1.564	0.045628
1.565	0.045628
1.566	0.045628
1.567	0.045628
1.568	0.045628
1.569	0.045628
1.57	0.045628
1.571	0.045628
1.572	0.045628
1.573	0.045628
1.574	0.046299
1.575	0.04697
1.576	0.047641
1.577	0.048312
1.578	0.048312
1.579	0.048312
1.58	0.048312
1.581	0.048312
1.582	0.048312
1.583	0.048312
1.584	0.048312
1.585	0.048312
1.586	0.048312
1.587	0.048312
1.588	0.048312
1.589	0.048312
1.59	0.048312
1.591	0.048312
1.592	0.048312
1.593	0.048312
1.594	0.048312
1.595	0.048983
1.596	0.050325
1.597	0.050996
1.598	0.050996
1.599	0.050996
1.6	0.050996
1.601	0.050996
1.602	0.052338
1.603	0.053009
1.604	0.05368
1.605	0.054351
1.606	0.055022
1.607	0.055693
1.608	0.056364
1.609	0.057035
1.61	0.058377
1.611	0.059048
1.612	0.059048
1.613	0.059048
1.614	0.059048
1.615	0.059048
1.616	0.059048
1.617	0.059048
1.618	0.059048
1.619	0.059048
1.62	0.059048
1.621	0.059048
1.622	0.059048
1.623	0.059048
1.624	0.059048
1.625	0.059048
1.626	0.059719
1.627	0.06039
1.628	0.061061
1.629	0.061732
1.63	0.063074
1.631	0.063745
1.632	0.063745
1.633	0.063745
1.634	0.063745
1.635	0.063745
1.636	0.064416
1.637	0.065758
1.638	0.066429
1.639	0.066429
1.64	0.066429
1.641	0.066429
1.642	0.066429
1.643	0.066429
1.644	0.066429
1.645	0.066429
1.646	0.066429
1.647	0.066429
1.648	0.066429
1.649	0.066429
1.65	0.065758
1.651	0.065087
1.652	0.064416
1.653	0.063745
1.654	0.063745
1.655	0.063745
1.656	0.063745
1.657	0.063074
1.658	0.062403
1.659	0.061732
1.66	0.062403
1.661	0.063074
1.662	0.063745
1.663	0.064416
1.664	0.065087
1.665	0.065758
1.666	0.066429
1.667	0.0671
1.668	0.068442
1.669	0.069113
1.67	0.069113
1.671	0.069113
1.672	0.069113
1.673	0.069113
1.674	0.0671
1.675	0.065758
1.676	0.064416
1.677	0.063074
1.678	0.061061
1.679	0.059719
1.68	0.058377
1.681	0.057035
1.682	0.055022
1.683	0.05368
1.684	0.055022
1.685	0.056364
1.686	0.057706
1.687	0.059719
1.688	0.061061
1.689	0.062403
1.69	0.063745
1.691	0.065758
1.692	0.0671
1.693	0.068442
1.694	0.069113
1.695	0.069113
1.696	0.069113
1.697	0.069113
1.698	0.068442
1.699	0.067771
1.7	0.0671
1.701	0.066429
1.702	0.066429
1.703	0.066429
1.704	0.066429
1.705	0.065758
1.706	0.065087
1.707	0.064416
1.708	0.063074
1.709	0.062403
1.71	0.061732
1.711	0.06039
1.712	0.057035
1.713	0.054351
1.714	0.050996
1.715	0.04697
1.716	0.042273
1.717	0.037576
1.718	0.032879
1.719	0.028853
1.72	0.024156
1.721	0.019459
1.722	0.016104
1.723	0.012078
1.724	0.008052
1.725	0.006039
1.726	0.004697
1.727	0.002684
1.728	0.001342
1.729	0.000671
1.73	0
1.731	-0.000671
1.732	-0.000671
1.733	-0.000671
1.734	-0.000671
1.735	-0.001342
1.736	-0.002013
1.737	-0.002684
1.738	-0.003355
1.739	-0.004697
1.74	-0.00671
1.741	-0.008052
1.742	-0.010065
1.743	-0.012078
1.744	-0.014091
1.745	-0.016775
1.746	-0.018788
1.747	-0.020801
1.748	-0.023485
1.749	-0.025498
1.75	-0.02684
1.751	-0.028182
1.752	-0.029524
1.753	-0.031537
1.754	-0.032879
1.755	-0.034221
1.756	-0.034892
1.757	-0.034892
1.758	-0.034892
1.759	-0.034892
1.76	-0.035563
1.761	-0.036234
1.762	-0.036905
1.763	-0.037576
1.764	-0.037576
1.765	-0.037576
1.766	-0.036905
1.767	-0.036234
1.768	-0.035563
1.769	-0.034892
1.77	-0.034221
1.771	-0.032879
1.772	-0.032208
1.773	-0.031537
1.774	-0.030866
1.775	-0.030195
1.776	-0.029524
1.777	-0.028853
1.778	-0.028182
1.779	-0.02684
1.78	-0.025498
1.781	-0.024156
1.782	-0.022814
1.783	-0.021472
1.784	-0.020801
1.785	-0.02013
1.786	-0.019459
1.787	-0.018117
1.788	-0.016104
1.789	-0.014762
1.79	-0.01342
1.791	-0.012749
1.792	-0.012078
1.793	-0.011407
1.794	-0.010736
1.795	-0.010065
1.796	-0.009394
1.797	-0.008723
1.798	-0.008723
1.799	-0.008723
1.8	-0.008723
1.801	-0.009394
1.802	-0.010065
1.803	-0.010736
1.804	-0.011407
1.805	-0.011407
1.806	-0.011407
1.807	-0.011407
1.808	-0.010736
1.809	-0.009394
1.81	-0.008723
1.811	-0.007381
1.812	-0.006039
1.813	-0.004697
1.814	-0.003355
1.815	-0.001342
1.816	0
1.817	0.001342
1.818	0.002684
1.819	0.004697
1.82	0.006039
1.821	0.007381
1.822	0.008052
1.823	0.008723
1.824	0.009394
1.825	0.009394
1.826	0.009394
1.827	0.009394
1.828	0.008723
1.829	0.008052
1.83	0.007381
1.831	0.00671
1.832	0.006039
1.833	0.005368
1.834	0.004697
1.835	0.004026
1.836	0.002684
1.837	0.002013
1.838	0.002013
1.839	0.002684
1.84	0.003355
1.841	0.004026
1.842	0.004026
1.843	0.004026
1.844	0.004026
1.845	0.004697
1.846	0.005368
1.847	0.006039
1.848	0.00671
1.849	0.00671
1.85	0.00671
1.851	0.00671
1.852	0.007381
1.853	0.008052
1.854	0.008723
1.855	0.009394
1.856	0.010065
1.857	0.010736
1.858	0.012078
1.859	0.01342
1.86	0.016104
1.861	0.018117
1.862	0.02013
1.863	0.022814
1.864	0.024827
1.865	0.02684
1.866	0.027511
1.867	0.027511
1.868	0.027511
1.869	0.025498
1.87	0.019459
1.871	0.01342
1.872	0.007381
1.873	-0.005368
1.874	-0.018788
1.875	-0.032208
1.876	-0.049654
1.877	-0.070455
1.878	-0.091927
1.879	-0.112728
1.88	-0.138226
1.881	-0.163724
1.882	-0.188551
1.883	-0.214049
1.884	-0.238876
1.885	-0.263032
1.886	-0.285175
1.887	-0.301279
1.888	-0.316712
1.889	-0.330132
1.89	-0.336171
1.891	-0.339526
1.892	-0.34221
1.893	-0.341539
1.894	-0.332145
1.895	-0.32208
1.896	-0.312015
1.897	-0.289872
1.898	-0.263703
1.899	-0.236192
1.9	-0.205326
1.901	-0.171105
1.902	-0.135542
1.903	-0.099979
1.904	-0.071126
1.905	-0.042273
1.906	-0.01342
1.907	0.00671
1.908	0.02013
1.909	0.03355
1.91	0.045628
1.911	0.045628
1.912	0.045628
1.913	0.045628
1.914	0.041602
1.915	0.035563
1.916	0.029524
1.917	0.023485
1.918	0.017446
1.919	0.011407
1.92	0.005368
1.921	0.003355
1.922	0.001342
1.923	0
1.924	-0.000671
1.925	-0.000671
1.926	-0.000671
1.927	-0.000671
1.928	-0.001342
1.929	-0.002684
1.93	-0.003355
1.931	-0.004026
1.932	-0.006039
1.933	-0.007381
1.934	-0.008723
1.935	-0.009394
1.936	-0.010065
1.937	-0.010736
1.938	-0.010736
1.939	-0.010065
1.94	-0.009394
1.941	-0.008723
1.942	-0.00671
1.943	-0.005368
1.944	-0.004026
1.945	-0.002684
1.946	-0.000671
1.947	0.000671
1.948	0.001342
1.949	0.000671
1.95	0
1.951	-0.000671
1.952	-0.002013
1.953	-0.004026
1.954	-0.005368
1.955	-0.00671
1.956	-0.007381
1.957	-0.008052
1.958	-0.008723
1.959	-0.008723
1.96	-0.008723
1.961	-0.008723
1.962	-0.008052
1.963	-0.007381
1.964	-0.00671
1.965	-0.006039
1.966	-0.006039
1.967	-0.006039
1.968	-0.006039
1.969	-0.005368
1.97	-0.004697
1.971	-0.004026
1.972	-0.003355
1.973	-0.003355
1.974	-0.003355
1.975	-0.003355
1.976	-0.003355
1.977	-0.003355
1.978	-0.003355
1.979	-0.003355
1.98	-0.003355
1.981	-0.003355
1.982	-0.003355
1.983	-0.003355
1.984	-0.003355
1.985	-0.003355
1.986	-0.004026
1.987	-0.004697
1.988	-0.005368
1.989	-0.006039
1.99	-0.007381
1.991	-0.009394
1.992	-0.010736
1.993	-0.012078
1.994	-0.012749
1.995	-0.01342
1.996	-0.014091
1.997	-0.014762
1.998	-0.015433
1.999	-0.016104
2	-0.016775
2.001	-0.016775
2.002	-0.016775
2.003	-0.016104
2.004	-0.015433
2.005	-0.014762
2.006	-0.014091
2.007	-0.014091
2.008	-0.014091
2.009	-0.014091
2.01	-0.014091
2.011	-0.014762
2.012	-0.015433
2.013	-0.016775
2.014	-0.017446
2.015	-0.018117
2.016	-0.018788
2.017	-0.018788
2.018	-0.018788
2.019	-0.018788
2.02	-0.019459
2.021	-0.02013
2.022	-0.020801
2.023	-0.021472
2.024	-0.022814
2.025	-0.024156
2.026	-0.025498
2.027	-0.027511
2.028	-0.028853
2.029	-0.030195
2.03	-0.031537
2.031	-0.03355
2.032	-0.034892
2.033	-0.036234
2.034	-0.037576
2.035	-0.038247
2.036	-0.038918
2.037	-0.039589
2.038	-0.040931
2.039	-0.041602
2.04	-0.042273
2.041	-0.042944
2.042	-0.043615
2.043	-0.044286
2.044	-0.044957
2.045	-0.04697
2.046	-0.048312
2.047	-0.049654
2.048	-0.052338
2.049	-0.055022
2.05	-0.058377
2.051	-0.061061
2.052	-0.064416
2.053	-0.0671
2.054	-0.070455
2.055	-0.073139
2.056	-0.076494
2.057	-0.079178
2.058	-0.081862
2.059	-0.084546
2.06	-0.086559
2.061	-0.089243
2.062	-0.089914
2.063	-0.090585
2.064	-0.091256
2.065	-0.091927
2.066	-0.091927
2.067	-0.091927
2.068	-0.091927
2.069	-0.091927
2.07	-0.091927
2.071	-0.091927
2.072	-0.092598
2.073	-0.09394
2.074	-0.095953
2.075	-0.097295
2.076	-0.097966
2.077	-0.098637
2.078	-0.099308
2.079	-0.10065
2.08	-0.101992
2.081	-0.104005
2.082	-0.104676
2.083	-0.104676
2.084	-0.104676
2.085	-0.104676
2.086	-0.103334
2.087	-0.101992
2.088	-0.10065
2.089	-0.098637
2.09	-0.097295
2.091	-0.095953
2.092	-0.094611
2.093	-0.092598
2.094	-0.091256
2.095	-0.089914
2.096	-0.088572
2.097	-0.087901
2.098	-0.08723
2.099	-0.086559
2.1	-0.084546
2.101	-0.083204
2.102	-0.081862
2.103	-0.079178
2.104	-0.076494
2.105	-0.073139
2.106	-0.069784
2.107	-0.065087
2.108	-0.06039
2.109	-0.056364
2.11	-0.051667
2.111	-0.04697
2.112	-0.042273
2.113	-0.038247
2.114	-0.034221
2.115	-0.030866
2.116	-0.02684
2.117	-0.024827
2.118	-0.022143
2.119	-0.02013
2.12	-0.018788
2.121	-0.018117
2.122	-0.017446
2.123	-0.016104
2.124	-0.014091
2.125	-0.011407
2.126	-0.009394
2.127	-0.007381
2.128	-0.004697
2.129	-0.002684
2.13	0
2.131	0.002684
2.132	0.006039
2.133	0.008723
2.134	0.011407
2.135	0.01342
2.136	0.016104
2.137	0.018117
2.138	0.019459
2.139	0.020801
2.14	0.022143
2.141	0.022814
2.142	0.024156
2.143	0.024827
2.144	0.025498
2.145	0.026169
2.146	0.02684
2.147	0.027511
2.148	0.030195
2.149	0.032208
2.15	0.034892
2.151	0.036234
2.152	0.037576
2.153	0.039589
2.154	0.040931
2.155	0.040931
2.156	0.040931
2.157	0.040931
2.158	0.04026
2.159	0.039589
2.16	0.038247
2.161	0.038247
2.162	0.038247
2.163	0.038247
2.164	0.038247
2.165	0.039589
2.166	0.040931
2.167	0.042273
2.168	0.043615
2.169	0.045628
2.17	0.04697
2.171	0.048312
2.172	0.049654
2.173	0.051667
2.174	0.053009
2.175	0.05368
2.176	0.05368
2.177	0.05368
2.178	0.05368
2.179	0.051667
2.18	0.050325
2.181	0.048983
2.182	0.047641
2.183	0.04697
2.184	0.046299
2.185	0.046299
2.186	0.04697
2.187	0.047641
2.188	0.048312
2.189	0.049654
2.19	0.050996
2.191	0.052338
2.192	0.054351
2.193	0.055693
2.194	0.057035
2.195	0.059048
2.196	0.059048
2.197	0.059048
2.198	0.059048
2.199	0.057706
2.2	0.056364
2.201	0.055022
2.202	0.05368
2.203	0.050996
2.204	0.048983
2.205	0.046299
2.206	0.044957
2.207	0.043615
2.208	0.041602
2.209	0.040931
2.21	0.040931
2.211	0.040931
2.212	0.040931
2.213	0.040931
2.214	0.042273
2.215	0.042944
2.216	0.043615
2.217	0.044957
2.218	0.04697
2.219	0.048312
2.22	0.048983
2.221	0.049654
2.222	0.050325
2.223	0.051667
2.224	0.052338
2.225	0.053009
2.226	0.05368
2.227	0.053009
2.228	0.052338
2.229	0.050996
2.23	0.050325
2.231	0.049654
2.232	0.048983
2.233	0.048312
2.234	0.047641
2.235	0.04697
2.236	0.046299
2.237	0.044957
2.238	0.044286
2.239	0.043615
2.24	0.042944
2.241	0.042944
2.242	0.042944
2.243	0.042944
2.244	0.043615
2.245	0.044957
2.246	0.045628
2.247	0.046299
2.248	0.04697
2.249	0.047641
2.25	0.048312
2.251	0.048983
2.252	0.049654
2.253	0.050996
2.254	0.050996
2.255	0.050996
2.256	0.050996
2.257	0.050996
2.258	0.050325
2.259	0.049654
2.26	0.048983
2.261	0.047641
2.262	0.04697
2.263	0.046299
2.264	0.045628
2.265	0.045628
2.266	0.045628
2.267	0.045628
2.268	0.045628
2.269	0.045628
2.27	0.045628
2.271	0.046299
2.272	0.04697
2.273	0.047641
2.274	0.048312
2.275	0.048312
2.276	0.048312
2.277	0.048312
2.278	0.048312
2.279	0.048312
2.28	0.048312
2.281	0.048312
2.282	0.048312
2.283	0.048312
2.284	0.048312
2.285	0.049654
2.286	0.050996
2.287	0.052338
2.288	0.05368
2.289	0.054351
2.29	0.055022
2.291	0.055693
2.292	0.057035
2.293	0.057706
2.294	0.058377
2.295	0.059048
2.296	0.059048
2.297	0.059048
2.298	0.059048
2.299	0.058377
2.3	0.057706
2.301	0.056364
2.302	0.055693
2.303	0.055022
2.304	0.054351
2.305	0.05368
2.306	0.05368
2.307	0.05368
2.308	0.05368
2.309	0.05368
2.31	0.05368
2.311	0.05368
2.312	0.05368
2.313	0.054351
2.314	0.055022
2.315	0.055693
2.316	0.055693
2.317	0.055022
2.318	0.054351
2.319	0.05368
2.32	0.052338
2.321	0.051667
2.322	0.050996
2.323	0.049654
2.324	0.048312
2.325	0.04697
2.326	0.045628
2.327	0.044957
2.328	0.044286
2.329	0.042944
2.33	0.042273
2.331	0.041602
2.332	0.040931
2.333	0.040931
2.334	0.041602
2.335	0.042273
2.336	0.043615
2.337	0.044957
2.338	0.046299
2.339	0.047641
2.34	0.049654
2.341	0.052338
2.342	0.054351
2.343	0.056364
2.344	0.057035
2.345	0.057706
2.346	0.058377
2.347	0.058377
2.348	0.057706
2.349	0.057035
2.35	0.055693
2.351	0.053009
2.352	0.050996
2.353	0.048983
2.354	0.047641
2.355	0.04697
2.356	0.046299
2.357	0.045628
2.358	0.045628
2.359	0.045628
2.36	0.045628
2.361	0.047641
2.362	0.048983
2.363	0.050325
2.364	0.051667
2.365	0.052338
2.366	0.053009
2.367	0.05368
2.368	0.054351
2.369	0.055022
2.37	0.055693
2.371	0.056364
2.372	0.056364
2.373	0.056364
2.374	0.056364
2.375	0.056364
2.376	0.056364
2.377	0.056364
2.378	0.056364
2.379	0.056364
2.38	0.056364
2.381	0.056364
2.382	0.057035
2.383	0.057706
2.384	0.059048
2.385	0.059048
2.386	0.059048
2.387	0.059048
2.388	0.059048
2.389	0.059048
2.39	0.059048
2.391	0.059048
2.392	0.059048
2.393	0.059048
2.394	0.059048
2.395	0.058377
2.396	0.057706
2.397	0.057035
2.398	0.056364
2.399	0.056364
2.4	0.056364
2.401	0.056364
2.402	0.055022
2.403	0.05368
2.404	0.052338
2.405	0.050996
2.406	0.050325
2.407	0.048983
2.408	0.048312
2.409	0.047641
2.41	0.04697
2.411	0.046299
2.412	0.045628
2.413	0.044957
2.414	0.044286
2.415	0.042944
2.416	0.044286
2.417	0.044957
2.418	0.045628
2.419	0.04697
2.42	0.048312
2.421	0.049654
2.422	0.050996
2.423	0.051667
2.424	0.052338
2.425	0.05368
2.426	0.05368
2.427	0.05368
2.428	0.05368
2.429	0.05368
2.43	0.052338
2.431	0.051667
2.432	0.050996
2.433	0.050325
2.434	0.049654
2.435	0.048983
2.436	0.048312
2.437	0.048312
2.438	0.048312
2.439	0.048312
2.44	0.048312
2.441	0.048312
2.442	0.048312
2.443	0.048983
2.444	0.049654
2.445	0.050325
2.446	0.050996
2.447	0.050996
2.448	0.050996
2.449	0.050996
2.45	0.050325
2.451	0.049654
2.452	0.048983
2.453	0.048312
2.454	0.047641
2.455	0.04697
2.456	0.046299
2.457	0.044957
2.458	0.044286
2.459	0.043615
2.46	0.042944
2.461	0.042273
2.462	0.041602
2.463	0.040931
2.464	0.040931
2.465	0.040931
2.466	0.040931
2.467	0.040931
2.468	0.040931
2.469	0.040931
2.47	0.040931
2.471	0.041602
2.472	0.042273
2.473	0.042944
2.474	0.044286
2.475	0.045628
2.476	0.04697
2.477	0.048312
2.478	0.048983
2.479	0.050325
2.48	0.050996
2.481	0.050996
2.482	0.050996
2.483	0.050996
2.484	0.050325
2.485	0.048983
2.486	0.047641
2.487	0.046299
2.488	0.044957
2.489	0.044286
2.49	0.043615
2.491	0.042944
2.492	0.042944
2.493	0.042944
2.494	0.042944
2.495	0.042944
2.496	0.042944
2.497	0.042944
2.498	0.042944
2.499	0.042944
2.5	0.042944
2.501	0.042944
2.502	0.042273
2.503	0.041602
2.504	0.040931
2.505	0.04026
2.506	0.039589
2.507	0.038918
2.508	0.037576
2.509	0.036905
2.51	0.036234
2.511	0.035563
2.512	0.035563
2.513	0.035563
2.514	0.035563
2.515	0.035563
2.516	0.035563
2.517	0.035563
2.518	0.035563
2.519	0.035563
2.52	0.035563
2.521	0.035563
2.522	0.034892
2.523	0.034221
2.524	0.03355
2.525	0.032879
2.526	0.032208
2.527	0.031537
2.528	0.030866
2.529	0.029524
2.53	0.028853
2.531	0.028182
2.532	0.027511
2.533	0.02684
2.534	0.026169
2.535	0.025498
2.536	0.024156
2.537	0.022143
2.538	0.020801
2.539	0.019459
2.54	0.018788
2.541	0.018117
2.542	0.017446
2.543	0.016104
2.544	0.014091
2.545	0.012749
2.546	0.011407
2.547	0.010736
2.548	0.010065
2.549	0.009394
2.55	0.009394
2.551	0.009394
2.552	0.009394
2.553	0.009394
2.554	0.009394
2.555	0.009394
2.556	0.009394
2.557	0.010065
2.558	0.011407
2.559	0.012078
2.56	0.012078
2.561	0.012078
2.562	0.012078
2.563	0.012078
2.564	0.012078
2.565	0.012078
2.566	0.012078
2.567	0.012078
2.568	0.012078
2.569	0.012078
2.57	0.012078
2.571	0.01342
2.572	0.014091
2.573	0.014762
2.574	0.016104
2.575	0.017446
2.576	0.019459
2.577	0.020801
2.578	0.023485
2.579	0.025498
2.58	0.028182
2.581	0.030195
2.582	0.032208
2.583	0.034892
2.584	0.036905
2.585	0.038918
2.586	0.041602
2.587	0.043615
2.588	0.044286
2.589	0.044957
2.59	0.045628
2.591	0.046299
2.592	0.04697
2.593	0.047641
2.594	0.047641
2.595	0.046299
2.596	0.044957
2.597	0.043615
2.598	0.042273
2.599	0.041602
2.6	0.040931
2.601	0.04026
2.602	0.039589
2.603	0.038918
2.604	0.038247
2.605	0.037576
2.606	0.036234
2.607	0.035563
2.608	0.035563
2.609	0.036905
2.61	0.037576
2.611	0.038247
2.612	0.038918
2.613	0.039589
2.614	0.04026
2.615	0.041602
2.616	0.042944
2.617	0.044957
2.618	0.046299
2.619	0.04697
2.62	0.047641
2.621	0.048312
2.622	0.048983
2.623	0.049654
2.624	0.050325
2.625	0.050996
2.626	0.050996
2.627	0.050996
2.628	0.050996
2.629	0.050996
2.63	0.050996
2.631	0.050996
2.632	0.050996
2.633	0.050996
2.634	0.050996
2.635	0.050996
2.636	0.050996
2.637	0.050996
2.638	0.050996
2.639	0.050996
2.64	0.050996
2.641	0.050996
2.642	0.050996
2.643	0.050325
2.644	0.049654
2.645	0.048312
2.646	0.047641
2.647	0.04697
2.648	0.046299
2.649	0.045628
2.65	0.044957
2.651	0.044286
2.652	0.043615
2.653	0.043615
2.654	0.044957
2.655	0.045628
2.656	0.046299
2.657	0.048312
2.658	0.049654
2.659	0.050996
2.66	0.052338
2.661	0.054351
2.662	0.055693
2.663	0.055693
2.664	0.055022
2.665	0.054351
2.666	0.053009
2.667	0.048312
2.668	0.044286
2.669	0.039589
2.67	0.030195
2.671	0.018788
2.672	0.007381
2.673	-0.005368
2.674	-0.023485
2.675	-0.041602
2.676	-0.059719
2.677	-0.083875
2.678	-0.109373
2.679	-0.135542
2.68	-0.161711
2.681	-0.18788
2.682	-0.21472
2.683	-0.240218
2.684	-0.259677
2.685	-0.278465
2.686	-0.295911
2.687	-0.306647
2.688	-0.312015
2.689	-0.317383
2.69	-0.320738
2.691	-0.312015
2.692	-0.302621
2.693	-0.293227
2.694	-0.273768
2.695	-0.24827
2.696	-0.22143
2.697	-0.192577
2.698	-0.157685
2.699	-0.122122
2.7	-0.086559
2.701	-0.055022
2.702	-0.024827
2.703	0.005368
2.704	0.030195
2.705	0.045628
2.706	0.06039
2.707	0.075823
2.708	0.079178
2.709	0.081191
2.71	0.083875
2.711	0.081862
2.712	0.075823
2.713	0.069784
2.714	0.063745
2.715	0.058377
2.716	0.053009
2.717	0.048312
2.718	0.043615
2.719	0.039589
2.72	0.036234
2.721	0.032879
2.722	0.032208
2.723	0.031537
2.724	0.030195
2.725	0.029524
2.726	0.027511
2.727	0.026169
2.728	0.024827
2.729	0.022814
2.73	0.021472
2.731	0.02013
2.732	0.018788
2.733	0.016775
2.734	0.015433
2.735	0.014762
2.736	0.014762
2.737	0.014762
2.738	0.014762
2.739	0.015433
2.74	0.016104
2.741	0.016775
2.742	0.017446
2.743	0.018117
2.744	0.019459
2.745	0.02013
2.746	0.02013
2.747	0.02013
2.748	0.02013
2.749	0.02013
2.75	0.02013
2.751	0.02013
2.752	0.02013
2.753	0.02013
2.754	0.02013
2.755	0.02013
2.756	0.02013
2.757	0.02013
2.758	0.02013
2.759	0.019459
2.76	0.018788
2.761	0.018117
2.762	0.017446
2.763	0.016775
2.764	0.016104
2.765	0.014762
2.766	0.014091
2.767	0.01342
2.768	0.012749
2.769	0.012078
2.77	0.011407
2.771	0.010736
2.772	0.010065
2.773	0.009394
2.774	0.009394
2.775	0.009394
2.776	0.009394
2.777	0.010065
2.778	0.010736
2.779	0.012078
2.78	0.012078
2.781	0.012078
2.782	0.012078
2.783	0.012078
2.784	0.012078
2.785	0.012078
2.786	0.012078
2.787	0.012078
2.788	0.012078
2.789	0.012078
2.79	0.012078
2.791	0.012078
2.792	0.012078
2.793	0.012078
2.794	0.012078
2.795	0.012078
2.796	0.012078
2.797	0.011407
2.798	0.010736
2.799	0.010065
2.8	0.009394
2.801	0.008052
2.802	0.006039
2.803	0.004697
2.804	0.003355
2.805	0.002013
2.806	0
2.807	-0.001342
2.808	-0.002013
2.809	-0.002684
2.81	-0.003355
2.811	-0.004026
2.812	-0.004697
2.813	-0.005368
2.814	-0.00671
2.815	-0.007381
2.816	-0.008052
2.817	-0.008723
2.818	-0.010065
2.819	-0.011407
2.82	-0.01342
2.821	-0.014762
2.822	-0.017446
2.823	-0.019459
2.824	-0.021472
2.825	-0.022814
2.826	-0.023485
2.827	-0.024156
2.828	-0.024827
2.829	-0.025498
2.83	-0.026169
2.831	-0.02684
2.832	-0.02684
2.833	-0.02684
2.834	-0.02684
2.835	-0.027511
2.836	-0.028182
2.837	-0.028853
2.838	-0.030195
2.839	-0.032208
2.84	-0.034892
2.841	-0.036905
2.842	-0.038918
2.843	-0.04026
2.844	-0.041602
2.845	-0.043615
2.846	-0.045628
2.847	-0.048312
2.848	-0.050325
2.849	-0.051667
2.85	-0.05368
2.851	-0.055022
2.852	-0.056364
2.853	-0.057706
2.854	-0.059719
2.855	-0.061061
2.856	-0.063074
2.857	-0.065758
2.858	-0.067771
2.859	-0.069784
2.86	-0.072468
2.861	-0.074481
2.862	-0.077165
2.863	-0.079178
2.864	-0.081191
2.865	-0.083875
2.866	-0.085217
2.867	-0.086559
2.868	-0.088572
2.869	-0.089243
2.87	-0.089914
2.871	-0.091256
2.872	-0.091927
2.873	-0.092598
2.874	-0.093269
2.875	-0.09394
2.876	-0.095282
2.877	-0.096624
2.878	-0.097966
2.879	-0.099308
2.88	-0.10065
2.881	-0.101321
2.882	-0.101992
2.883	-0.103334
2.884	-0.104676
2.885	-0.106018
2.886	-0.10736
2.887	-0.108031
2.888	-0.108702
2.889	-0.110044
2.89	-0.109373
2.891	-0.108702
2.892	-0.108031
2.893	-0.106689
2.894	-0.104005
2.895	-0.101992
2.896	-0.099979
2.897	-0.095953
2.898	-0.092598
2.899	-0.088572
2.9	-0.084546
2.901	-0.081191
2.902	-0.077165
2.903	-0.07381
2.904	-0.071126
2.905	-0.069113
2.906	-0.066429
2.907	-0.065087
2.908	-0.064416
2.909	-0.063745
2.91	-0.063074
2.911	-0.063074
2.912	-0.063074
2.913	-0.063074
2.914	-0.062403
2.915	-0.06039
2.916	-0.059048
2.917	-0.057035
2.918	-0.053009
2.919	-0.049654
2.92	-0.045628
2.921	-0.04026
2.922	-0.035563
2.923	-0.030195
2.924	-0.024827
2.925	-0.019459
2.926	-0.014091
2.927	-0.008723
2.928	-0.00671
2.929	-0.004026
2.93	-0.002013
2.931	-0.000671
2.932	-0.000671
2.933	-0.000671
2.934	-0.000671
2.935	-0.000671
2.936	-0.000671
2.937	-0.000671
2.938	-0.000671
2.939	0
2.94	0.001342
2.941	0.002013
2.942	0.004697
2.943	0.00671
2.944	0.008723
2.945	0.012078
2.946	0.014762
2.947	0.018117
2.948	0.02013
2.949	0.020801
2.95	0.021472
2.951	0.022143
2.952	0.022143
2.953	0.022143
2.954	0.022143
2.955	0.022143
2.956	0.022143
2.957	0.022143
2.958	0.022143
2.959	0.022143
2.96	0.022143
2.961	0.022143
2.962	0.022814
2.963	0.023485
2.964	0.024156
2.965	0.025498
2.966	0.02684
2.967	0.028182
2.968	0.029524
2.969	0.030866
2.97	0.031537
2.971	0.032208
2.972	0.032879
2.973	0.032879
2.974	0.032879
2.975	0.032879
2.976	0.032879
2.977	0.032879
2.978	0.032879
2.979	0.032208
2.98	0.031537
2.981	0.030866
2.982	0.030195
2.983	0.030866
2.984	0.031537
2.985	0.032208
2.986	0.03355
2.987	0.034221
2.988	0.034892
2.989	0.035563
2.99	0.035563
2.991	0.035563
2.992	0.035563
2.993	0.035563
2.994	0.035563
2.995	0.035563
2.996	0.035563
2.997	0.034221
2.998	0.03355
2.999	0.032879
3	0.031537
3.001	0.030195
3.002	0.028853
3.003	0.02684
3.004	0.025498
3.005	0.024156
3.006	0.022814
3.007	0.023485
3.008	0.024156
3.009	0.024827
3.01	0.025498
3.011	0.027511
3.012	0.028853
3.013	0.030195
3.014	0.031537
3.015	0.03355
3.016	0.034892
3.017	0.036234
3.018	0.036905
3.019	0.037576
3.02	0.038247
3.021	0.038918
3.022	0.039589
3.023	0.04026
3.024	0.040931
3.025	0.040931
3.026	0.040931
3.027	0.04026
3.028	0.038918
3.029	0.036905
3.03	0.035563
3.031	0.034892
3.032	0.034221
3.033	0.03355
3.034	0.032208
3.035	0.031537
3.036	0.030866
3.037	0.030195
3.038	0.030195
3.039	0.030195
3.04	0.030195
3.041	0.030866
3.042	0.031537
3.043	0.032208
3.044	0.032879
3.045	0.03355
3.046	0.034221
3.047	0.034892
3.048	0.035563
3.049	0.035563
3.05	0.035563
3.051	0.034892
3.052	0.032879
3.053	0.030195
3.054	0.028182
3.055	0.025498
3.056	0.023485
3.057	0.021472
3.058	0.019459
3.059	0.017446
3.06	0.016104
3.061	0.014762
3.062	0.015433
3.063	0.016104
3.064	0.016775
3.065	0.018117
3.066	0.019459
3.067	0.020801
3.068	0.022814
3.069	0.024827
3.07	0.02684
3.071	0.029524
3.072	0.030195
3.073	0.030195
3.074	0.030195
3.075	0.030195
3.076	0.029524
3.077	0.028853
3.078	0.027511
3.079	0.02684
3.08	0.024827
3.081	0.023485
3.082	0.022143
3.083	0.021472
3.084	0.020801
3.085	0.02013
3.086	0.02013
3.087	0.02013
3.088	0.02013
3.089	0.02013
3.09	0.020801
3.091	0.021472
3.092	0.022143
3.093	0.023485
3.094	0.024156
3.095	0.024827
3.096	0.025498
3.097	0.026169
3.098	0.02684
3.099	0.027511
3.1	0.028182
3.101	0.029524
3.102	0.030195
3.103	0.030866
3.104	0.031537
3.105	0.032208
3.106	0.032879
3.107	0.03355
3.108	0.034221
3.109	0.035563
3.11	0.036234
3.111	0.036905
3.112	0.037576
3.113	0.038247
3.114	0.038247
3.115	0.038247
3.116	0.038247
3.117	0.036905
3.118	0.034892
3.119	0.03355
3.12	0.032208
3.121	0.030866
3.122	0.028853
3.123	0.027511
3.124	0.02684
3.125	0.026169
3.126	0.025498
3.127	0.025498
3.128	0.026169
3.129	0.02684
3.13	0.028182
3.131	0.030195
3.132	0.032879
3.133	0.034892
3.134	0.036905
3.135	0.039589
3.136	0.041602
3.137	0.043615
3.138	0.044286
3.139	0.044957
3.14	0.045628
3.141	0.044957
3.142	0.044286
3.143	0.043615
3.144	0.042944
3.145	0.042273
3.146	0.041602
3.147	0.040931
3.148	0.040931
3.149	0.040931
3.15	0.040931
3.151	0.040931
3.152	0.041602
3.153	0.042273
3.154	0.043615
3.155	0.044286
3.156	0.044957
3.157	0.045628
3.158	0.045628
3.159	0.045628
3.16	0.045628
3.161	0.045628
3.162	0.044957
3.163	0.044286
3.164	0.043615
3.165	0.042273
3.166	0.04026
3.167	0.038918
3.168	0.037576
3.169	0.036905
3.17	0.036234
3.171	0.035563
3.172	0.034892
3.173	0.034221
3.174	0.032879
3.175	0.032879
3.176	0.032879
3.177	0.032879
3.178	0.032879
3.179	0.032879
3.18	0.032879
3.181	0.032879
3.182	0.03355
3.183	0.034221
3.184	0.034892
3.185	0.035563
3.186	0.037576
3.187	0.038918
3.188	0.04026
3.189	0.041602
3.19	0.043615
3.191	0.044957
3.192	0.046299
3.193	0.04697
3.194	0.047641
3.195	0.048312
3.196	0.047641
3.197	0.04697
3.198	0.046299
3.199	0.044957
3.2	0.043615
3.201	0.042273
3.202	0.040931
3.203	0.038918
3.204	0.037576
3.205	0.036234
3.206	0.035563
3.207	0.035563
3.208	0.035563
3.209	0.035563
3.21	0.036905
3.211	0.038918
3.212	0.04026
3.213	0.040931
3.214	0.041602
3.215	0.042944
3.216	0.043615
3.217	0.044957
3.218	0.046299
3.219	0.048312
3.22	0.048983
3.221	0.049654
3.222	0.050325
3.223	0.050996
3.224	0.052338
3.225	0.053009
3.226	0.05368
3.227	0.05368
3.228	0.05368
3.229	0.05368
3.23	0.05368
3.231	0.05368
3.232	0.05368
3.233	0.05368
3.234	0.053009
3.235	0.052338
3.236	0.050996
3.237	0.050325
3.238	0.049654
3.239	0.048983
3.24	0.048312
3.241	0.04697
3.242	0.044957
3.243	0.043615
3.244	0.042944
3.245	0.041602
3.246	0.040931
3.247	0.040931
3.248	0.040931
3.249	0.040931
3.25	0.040931
3.251	0.040931
3.252	0.040931
3.253	0.040931
3.254	0.040931
3.255	0.041602
3.256	0.042273
3.257	0.042944
3.258	0.044286
3.259	0.044957
3.26	0.045628
3.261	0.045628
3.262	0.044957
3.263	0.043615
3.264	0.042944
3.265	0.042273
3.266	0.041602
3.267	0.040931
3.268	0.039589
3.269	0.038247
3.27	0.036234
3.271	0.034892
3.272	0.032879
3.273	0.030195
3.274	0.028182
3.275	0.02684
3.276	0.026169
3.277	0.025498
3.278	0.024156
3.279	0.022814
3.28	0.021472
3.281	0.02013
3.282	0.018117
3.283	0.016775
3.284	0.015433
3.285	0.01342
3.286	0.011407
3.287	0.008723
3.288	0.00671
3.289	0.005368
3.29	0.004026
3.291	0.002013
3.292	0.000671
3.293	-0.000671
3.294	-0.002013
3.295	-0.003355
3.296	-0.004697
3.297	-0.005368
3.298	-0.006039
3.299	-0.00671
3.3	-0.007381
3.301	-0.008052
3.302	-0.008723
3.303	-0.009394
3.304	-0.010736
3.305	-0.011407
3.306	-0.012749
3.307	-0.014091
3.308	-0.015433
3.309	-0.016775
3.31	-0.017446
3.311	-0.018117
3.312	-0.018788
3.313	-0.020801
3.314	-0.022143
3.315	-0.023485
3.316	-0.024156
3.317	-0.024156
3.318	-0.024156
3.319	-0.024156
3.32	-0.024156
3.321	-0.024156
3.322	-0.024156
3.323	-0.024156
3.324	-0.024156
3.325	-0.024156
3.326	-0.024156
3.327	-0.025498
3.328	-0.026169
3.329	-0.02684
3.33	-0.028182
3.331	-0.029524
3.332	-0.030866
3.333	-0.032879
3.334	-0.034221
3.335	-0.035563
3.336	-0.036905
3.337	-0.038247
3.338	-0.038918
3.339	-0.039589
3.34	-0.040931
3.341	-0.042273
3.342	-0.043615
3.343	-0.044957
3.344	-0.04697
3.345	-0.048312
3.346	-0.049654
3.347	-0.050996
3.348	-0.051667
3.349	-0.052338
3.35	-0.053009
3.351	-0.053009
3.352	-0.053009
3.353	-0.053009
3.354	-0.053009
3.355	-0.053009
3.356	-0.053009
3.357	-0.052338
3.358	-0.051667
3.359	-0.050996
3.36	-0.050325
3.361	-0.048983
3.362	-0.047641
3.363	-0.045628
3.364	-0.044957
3.365	-0.044957
3.366	-0.044957
3.367	-0.044957
3.368	-0.044286
3.369	-0.043615
3.37	-0.042944
3.371	-0.042273
3.372	-0.042273
3.373	-0.042273
3.374	-0.042273
3.375	-0.042273
3.376	-0.042273
3.377	-0.042273
3.378	-0.041602
3.379	-0.039589
3.38	-0.038247
3.381	-0.036905
3.382	-0.036234
3.383	-0.035563
3.384	-0.034892
3.385	-0.034221
3.386	-0.03355
3.387	-0.032208
3.388	-0.031537
3.389	-0.030866
3.39	-0.030195
3.391	-0.029524
3.392	-0.028853
3.393	-0.028182
3.394	-0.027511
3.395	-0.026169
3.396	-0.024827
3.397	-0.022814
3.398	-0.021472
3.399	-0.02013
3.4	-0.018788
3.401	-0.016775
3.402	-0.016104
3.403	-0.015433
3.404	-0.014762
3.405	-0.01342
3.406	-0.012749
3.407	-0.012078
3.408	-0.011407
3.409	-0.012078
3.41	-0.012749
3.411	-0.01342
3.412	-0.01342
3.413	-0.012749
3.414	-0.012078
3.415	-0.011407
3.416	-0.010065
3.417	-0.008052
3.418	-0.00671
3.419	-0.005368
3.42	-0.004026
3.421	-0.002013
3.422	-0.000671
3.423	0
3.424	0.000671
3.425	0.001342
3.426	0.001342
3.427	0.000671
3.428	-0.000671
3.429	-0.001342
3.43	-0.002684
3.431	-0.004026
3.432	-0.006039
3.433	-0.007381
3.434	-0.008723
3.435	-0.010065
3.436	-0.011407
3.437	-0.012078
3.438	-0.01342
3.439	-0.014091
3.44	-0.01342
3.441	-0.012749
3.442	-0.011407
3.443	-0.010736
3.444	-0.009394
3.445	-0.007381
3.446	-0.006039
3.447	-0.004697
3.448	-0.003355
3.449	-0.001342
3.45	-0.000671
3.451	-0.000671
3.452	-0.000671
3.453	-0.000671
3.454	-0.000671
3.455	-0.000671
3.456	-0.000671
3.457	-0.000671
3.458	-0.000671
3.459	-0.000671
3.46	-0.000671
3.461	0.001342
3.462	0.002684
3.463	0.004026
3.464	0.006039
3.465	0.008723
3.466	0.010736
3.467	0.012078
3.468	0.01342
3.469	0.014091
3.47	0.014762
3.471	0.010065
3.472	0.006039
3.473	0.001342
3.474	-0.00671
3.475	-0.018117
3.476	-0.029524
3.477	-0.041602
3.478	-0.059719
3.479	-0.077836
3.48	-0.095953
3.481	-0.117425
3.482	-0.14091
3.483	-0.163724
3.484	-0.187209
3.485	-0.210023
3.486	-0.232166
3.487	-0.253638
3.488	-0.269742
3.489	-0.284504
3.49	-0.297924
3.491	-0.307318
3.492	-0.310002
3.493	-0.313357
3.494	-0.316041
3.495	-0.306647
3.496	-0.296582
3.497	-0.285846
3.498	-0.2684
3.499	-0.244244
3.5	-0.218746
3.501	-0.191906
3.502	-0.158356
3.503	-0.124806
3.504	-0.091256
3.505	-0.061732
3.506	-0.034221
3.507	-0.007381
3.508	0.017446
3.509	0.030866
3.51	0.044286
3.511	0.058377
3.512	0.061061
3.513	0.06039
3.514	0.059048
3.515	0.056364
3.516	0.048983
3.517	0.040931
3.518	0.03355
3.519	0.025498
3.52	0.017446
3.521	0.008723
3.522	0.002684
3.523	-0.001342
3.524	-0.004697
3.525	-0.008723
3.526	-0.008723
3.527	-0.008723
3.528	-0.008723
3.529	-0.008723
3.53	-0.008723
3.531	-0.008723
3.532	-0.008723
3.533	-0.009394
3.534	-0.010065
3.535	-0.011407
3.536	-0.012078
3.537	-0.012749
3.538	-0.01342
3.539	-0.014091
3.54	-0.014091
3.541	-0.014091
3.542	-0.014091
3.543	-0.012749
3.544	-0.011407
3.545	-0.009394
3.546	-0.008052
3.547	-0.00671
3.548	-0.005368
3.549	-0.003355
3.55	-0.002684
3.551	-0.002013
3.552	-0.001342
3.553	-0.000671
3.554	-0.000671
3.555	-0.000671
3.556	-0.000671
3.557	-0.002013
3.558	-0.002684
3.559	-0.003355
3.56	-0.004026
3.561	-0.004697
3.562	-0.005368
3.563	-0.006039
3.564	-0.007381
3.565	-0.008052
3.566	-0.008723
3.567	-0.008052
3.568	-0.007381
3.569	-0.00671
3.57	-0.006039
3.571	-0.006039
3.572	-0.006039
3.573	-0.006039
3.574	-0.006039
3.575	-0.006039
3.576	-0.006039
3.577	-0.006039
3.578	-0.006039
3.579	-0.006039
3.58	-0.006039
3.581	-0.00671
3.582	-0.007381
3.583	-0.008723
3.584	-0.008723
3.585	-0.008723
3.586	-0.008723
3.587	-0.008723
3.588	-0.008723
3.589	-0.008723
3.59	-0.008723
3.591	-0.008723
3.592	-0.008723
3.593	-0.008723
3.594	-0.008723
3.595	-0.010065
3.596	-0.010736
3.597	-0.011407
3.598	-0.012078
3.599	-0.012749
3.6	-0.01342
3.601	-0.014762
3.602	-0.016104
3.603	-0.017446
3.604	-0.019459
3.605	-0.020801
3.606	-0.022143
3.607	-0.023485
3.608	-0.024827
3.609	-0.025498
3.61	-0.026169
3.611	-0.02684
3.612	-0.02684
3.613	-0.02684
3.614	-0.02684
3.615	-0.026169
3.616	-0.025498
3.617	-0.024827
3.618	-0.024156
3.619	-0.022143
3.62	-0.020801
3.621	-0.019459
3.622	-0.018788
3.623	-0.018788
3.624	-0.018788
3.625	-0.019459
3.626	-0.02013
3.627	-0.020801
3.628	-0.021472
3.629	-0.022143
3.63	-0.023485
3.631	-0.024156
3.632	-0.024827
3.633	-0.02684
3.634	-0.028182
3.635	-0.029524
3.636	-0.030866
3.637	-0.032879
3.638	-0.034221
3.639	-0.036234
3.64	-0.038247
3.641	-0.040931
3.642	-0.042944
3.643	-0.044957
3.644	-0.047641
3.645	-0.049654
3.646	-0.052338
3.647	-0.054351
3.648	-0.056364
3.649	-0.058377
3.65	-0.06039
3.651	-0.061732
3.652	-0.063074
3.653	-0.063745
3.654	-0.064416
3.655	-0.065758
3.656	-0.066429
3.657	-0.0671
3.658	-0.067771
3.659	-0.068442
3.66	-0.069113
3.661	-0.069784
3.662	-0.070455
3.663	-0.072468
3.664	-0.074481
3.665	-0.077165
3.666	-0.079178
3.667	-0.081191
3.668	-0.083875
3.669	-0.085888
3.67	-0.087901
3.671	-0.089243
3.672	-0.090585
3.673	-0.091927
3.674	-0.091927
3.675	-0.091927
3.676	-0.091927
3.677	-0.091927
3.678	-0.091927
3.679	-0.091927
3.68	-0.091256
3.681	-0.090585
3.682	-0.089914
3.683	-0.089243
3.684	-0.089243
3.685	-0.089243
3.686	-0.089243
3.687	-0.089914
3.688	-0.091927
3.689	-0.093269
3.69	-0.094611
3.691	-0.094611
3.692	-0.094611
3.693	-0.094611
3.694	-0.09394
3.695	-0.093269
3.696	-0.092598
3.697	-0.091256
3.698	-0.089914
3.699	-0.088572
3.7	-0.086559
3.701	-0.084546
3.702	-0.082533
3.703	-0.079849
3.704	-0.077165
3.705	-0.074481
3.706	-0.071797
3.707	-0.068442
3.708	-0.065087
3.709	-0.062403
3.71	-0.059048
3.711	-0.055693
3.712	-0.052338
3.713	-0.048312
3.714	-0.044957
3.715	-0.040931
3.716	-0.036905
3.717	-0.03355
3.718	-0.029524
3.719	-0.025498
3.72	-0.022143
3.721	-0.018117
3.722	-0.015433
3.723	-0.012078
3.724	-0.009394
3.725	-0.006039
3.726	-0.003355
3.727	0
3.728	0.002013
3.729	0.004026
3.73	0.005368
3.731	0.00671
3.732	0.008723
3.733	0.011407
3.734	0.01342
3.735	0.015433
3.736	0.016775
3.737	0.018117
3.738	0.02013
3.739	0.022143
3.74	0.024827
3.741	0.02684
3.742	0.028853
3.743	0.030195
3.744	0.031537
3.745	0.032879
3.746	0.03355
3.747	0.034221
3.748	0.035563
3.749	0.036234
3.75	0.036905
3.751	0.037576
3.752	0.038247
3.753	0.038918
3.754	0.039589
3.755	0.04026
3.756	0.042273
3.757	0.044957
3.758	0.04697
3.759	0.049654
3.76	0.051667
3.761	0.05368
3.762	0.056364
3.763	0.057706
3.764	0.059048
3.765	0.06039
3.766	0.061732
3.767	0.062403
3.768	0.063074
3.769	0.063745
3.77	0.063745
3.771	0.063745
3.772	0.063745
3.773	0.063745
3.774	0.063074
3.775	0.061732
3.776	0.061061
3.777	0.06039
3.778	0.059719
3.779	0.059048
3.78	0.059048
3.781	0.059048
3.782	0.059048
3.783	0.059048
3.784	0.059719
3.785	0.06039
3.786	0.061061
3.787	0.061732
3.788	0.061732
3.789	0.061732
3.79	0.061732
3.791	0.061732
3.792	0.061732
3.793	0.061732
3.794	0.061732
3.795	0.061732
3.796	0.061732
3.797	0.061732
3.798	0.062403
3.799	0.063074
3.8	0.064416
3.801	0.065087
3.802	0.065758
3.803	0.066429
3.804	0.0671
3.805	0.067771
3.806	0.068442
3.807	0.069113
3.808	0.068442
3.809	0.0671
3.81	0.066429
3.811	0.065758
3.812	0.065087
3.813	0.064416
3.814	0.063745
3.815	0.063074
3.816	0.062403
3.817	0.061732
3.818	0.061732
3.819	0.061732
3.82	0.061732
3.821	0.061732
3.822	0.061732
3.823	0.061732
3.824	0.061732
3.825	0.062403
3.826	0.063074
3.827	0.063745
3.828	0.063745
3.829	0.063745
3.83	0.063745
3.831	0.063745
3.832	0.063074
3.833	0.062403
3.834	0.061732
3.835	0.061061
3.836	0.059719
3.837	0.059048
3.838	0.058377
3.839	0.057706
3.84	0.057035
3.841	0.056364
3.842	0.055693
3.843	0.055022
3.844	0.05368
3.845	0.054351
3.846	0.055022
3.847	0.055693
3.848	0.056364
3.849	0.057035
3.85	0.057706
3.851	0.058377
3.852	0.059048
3.853	0.06039
3.854	0.061061
3.855	0.061732
3.856	0.061732
3.857	0.061732
3.858	0.061732
3.859	0.059719
3.86	0.057035
3.861	0.055022
3.862	0.053009
3.863	0.051667
3.864	0.049654
3.865	0.048312
3.866	0.04697
3.867	0.045628
3.868	0.043615
3.869	0.043615
3.87	0.044286
3.871	0.044957
3.872	0.046299
3.873	0.047641
3.874	0.048983
3.875	0.050325
3.876	0.052338
3.877	0.05368
3.878	0.055022
3.879	0.056364
3.88	0.056364
3.881	0.056364
3.882	0.056364
3.883	0.055693
3.884	0.055022
3.885	0.054351
3.886	0.053009
3.887	0.052338
3.888	0.051667
3.889	0.050996
3.89	0.050996
3.891	0.050996
3.892	0.050996
3.893	0.051667
3.894	0.052338
3.895	0.053009
3.896	0.05368
3.897	0.05368
3.898	0.05368
3.899	0.05368
3.9	0.05368
3.901	0.05368
3.902	0.05368
3.903	0.053009
3.904	0.051667
3.905	0.050325
3.906	0.048983
3.907	0.048312
3.908	0.048312
3.909	0.048312
3.91	0.048983
3.911	0.049654
3.912	0.050325
3.913	0.050996
3.914	0.052338
3.915	0.05368
3.916	0.055693
3.917	0.056364
3.918	0.057035
3.919	0.058377
3.92	0.059048
3.921	0.059719
3.922	0.06039
3.923	0.061061
3.924	0.061732
3.925	0.061732
3.926	0.061732
3.927	0.061732
3.928	0.061732
3.929	0.061732
3.93	0.061732
3.931	0.061061
3.932	0.06039
3.933	0.059048
3.934	0.058377
3.935	0.057706
3.936	0.057035
3.937	0.056364
3.938	0.056364
3.939	0.056364
3.94	0.056364
3.941	0.056364
3.942	0.056364
3.943	0.056364
3.944	0.056364
3.945	0.057035
3.946	0.057706
3.947	0.058377
3.948	0.059048
3.949	0.059719
3.95	0.061061
3.951	0.061732
3.952	0.062403
3.953	0.063074
3.954	0.063745
3.955	0.063745
3.956	0.063745
3.957	0.063745
3.958	0.063745
3.959	0.063745
3.96	0.063745
3.961	0.063745
3.962	0.064416
3.963	0.065087
3.964	0.066429
3.965	0.0671
3.966	0.067771
3.967	0.068442
3.968	0.069113
3.969	0.069113
3.97	0.069113
3.971	0.069113
3.972	0.068442
3.973	0.0671
3.974	0.065087
3.975	0.063745
3.976	0.062403
3.977	0.061061
3.978	0.059048
3.979	0.057706
3.98	0.056364
3.981	0.055022
3.982	0.05368
3.983	0.05368
3.984	0.05368
3.985	0.05368
3.986	0.054351
3.987	0.055022
3.988	0.055693
3.989	0.057035
3.99	0.058377
3.991	0.059719
3.992	0.061061
3.993	0.062403
3.994	0.063074
3.995	0.063745
3.996	0.063745
3.997	0.063074
3.998	0.062403
3.999	0.061061
4	0.06039
4.001	0.059719
4.002	0.059048
4.003	0.058377
4.004	0.057706
4.005	0.057035
4.006	0.056364
4.007	0.055022
4.008	0.054351
4.009	0.05368
4.01	0.054351
4.011	0.055022
4.012	0.055693
4.013	0.056364
4.014	0.057035
4.015	0.057706
4.016	0.059048
4.017	0.06039
4.018	0.061732
4.019	0.063074
4.02	0.064416
4.021	0.065087
4.022	0.065758
4.023	0.066429
4.024	0.065758
4.025	0.065087
4.026	0.064416
4.027	0.063074
4.028	0.061732
4.029	0.06039
4.03	0.058377
4.031	0.057035
4.032	0.055693
4.033	0.054351
4.034	0.053009
4.035	0.052338
4.036	0.051667
4.037	0.051667
4.038	0.053009
4.039	0.054351
4.04	0.055693
4.041	0.058377
4.042	0.06039
4.043	0.062403
4.044	0.064416
4.045	0.066429
4.046	0.067771
4.047	0.069113
4.048	0.069113
4.049	0.069113
4.05	0.069113
4.051	0.068442
4.052	0.0671
4.053	0.065087
4.054	0.063745
4.055	0.061732
4.056	0.059048
4.057	0.057035
4.058	0.055022
4.059	0.05368
4.06	0.052338
4.061	0.050996
4.062	0.050996
4.063	0.050996
4.064	0.050996
4.065	0.051667
4.066	0.052338
4.067	0.053009
4.068	0.05368
4.069	0.054351
4.07	0.055693
4.071	0.056364
4.072	0.056364
4.073	0.056364
4.074	0.056364
4.075	0.056364
4.076	0.056364
4.077	0.056364
4.078	0.056364
4.079	0.055693
4.08	0.054351
4.081	0.05368
4.082	0.05368
4.083	0.05368
4.084	0.05368
4.085	0.05368
4.086	0.05368
4.087	0.05368
4.088	0.05368
4.089	0.05368
4.09	0.05368
4.091	0.05368
4.092	0.05368
4.093	0.054351
4.094	0.055022
4.095	0.056364
4.096	0.057035
4.097	0.057706
4.098	0.058377
4.099	0.059048
4.1	0.059048
4.101	0.059048
4.102	0.059048
4.103	0.058377
4.104	0.057035
4.105	0.056364
4.106	0.055693
4.107	0.05368
4.108	0.052338
4.109	0.050996
4.11	0.049654
4.111	0.047641
4.112	0.046299
4.113	0.044286
4.114	0.042273
4.115	0.039589
4.116	0.037576
4.117	0.036905
4.118	0.036234
4.119	0.035563
4.12	0.035563
4.121	0.035563
4.122	0.035563
4.123	0.035563
4.124	0.035563
4.125	0.035563
4.126	0.035563
4.127	0.034892
4.128	0.034221
4.129	0.03355
4.13	0.032879
4.131	0.032879
4.132	0.032879
4.133	0.032879
4.134	0.031537
4.135	0.029524
4.136	0.028182
4.137	0.027511
4.138	0.026169
4.139	0.025498
4.14	0.024827
4.141	0.023485
4.142	0.021472
4.143	0.02013
4.144	0.02013
4.145	0.02013
4.146	0.02013
4.147	0.02013
4.148	0.02013
4.149	0.02013
4.15	0.02013
4.151	0.020801
4.152	0.021472
4.153	0.022143
4.154	0.022814
4.155	0.024827
4.156	0.026169
4.157	0.027511
4.158	0.028182
4.159	0.028853
4.16	0.030195
4.161	0.030866
4.162	0.031537
4.163	0.032208
4.164	0.032879
4.165	0.03355
4.166	0.034221
4.167	0.034892
4.168	0.036234
4.169	0.036905
4.17	0.037576
4.171	0.038247
4.172	0.04026
4.173	0.041602
4.174	0.042944
4.175	0.043615
4.176	0.044286
4.177	0.045628
4.178	0.045628
4.179	0.045628
4.18	0.045628
4.181	0.045628
4.182	0.046299
4.183	0.04697
4.184	0.048312
4.185	0.048312
4.186	0.048312
4.187	0.048312
4.188	0.048312
4.189	0.048983
4.19	0.049654
4.191	0.050996
4.192	0.051667
4.193	0.052338
4.194	0.053009
4.195	0.05368
4.196	0.055693
4.197	0.057035
4.198	0.058377
4.199	0.059048
4.2	0.06039
4.201	0.061061
4.202	0.061732
4.203	0.061732
4.204	0.061732
4.205	0.061732
4.206	0.061732
4.207	0.061732
4.208	0.061732
4.209	0.061732
4.21	0.061732
4.211	0.061732
4.212	0.061061
4.213	0.06039
4.214	0.059719
4.215	0.059048
4.216	0.059048
4.217	0.059048
4.218	0.059048
4.219	0.058377
4.22	0.057706
4.221	0.057035
4.222	0.056364
4.223	0.055693
4.224	0.055022
4.225	0.054351
4.226	0.05368
4.227	0.052338
4.228	0.051667
4.229	0.050996
4.23	0.050996
4.231	0.050996
4.232	0.050996
4.233	0.050996
4.234	0.050996
4.235	0.050996
4.236	0.050996
4.237	0.052338
4.238	0.05368
4.239	0.055693
4.24	0.056364
4.241	0.057035
4.242	0.058377
4.243	0.059048
4.244	0.059719
4.245	0.06039
4.246	0.061061
4.247	0.061732
4.248	0.062403
4.249	0.063074
4.25	0.064416
4.251	0.065087
4.252	0.065758
4.253	0.066429
4.254	0.066429
4.255	0.066429
4.256	0.066429
4.257	0.065087
4.258	0.061732
4.259	0.057706
4.26	0.05368
4.261	0.044286
4.262	0.03355
4.263	0.022814
4.264	0.008723
4.265	-0.009394
4.266	-0.027511
4.267	-0.046299
4.268	-0.070455
4.269	-0.094611
4.27	-0.118767
4.271	-0.144265
4.272	-0.169763
4.273	-0.195932
4.274	-0.220088
4.275	-0.239547
4.276	-0.258335
4.277	-0.276452
4.278	-0.284504
4.279	-0.289872
4.28	-0.294569
4.281	-0.29524
4.282	-0.286517
4.283	-0.277794
4.284	-0.2684
4.285	-0.246257
4.286	-0.22143
4.287	-0.195932
4.288	-0.16775
4.289	-0.135542
4.29	-0.102663
4.291	-0.070455
4.292	-0.042273
4.293	-0.01342
4.294	0.015433
4.295	0.036905
4.296	0.053009
4.297	0.068442
4.298	0.082533
4.299	0.085888
4.3	0.088572
4.301	0.091927
4.302	0.089243
4.303	0.084546
4.304	0.08052
4.305	0.075152
4.306	0.069113
4.307	0.063074
4.308	0.057035
4.309	0.05368
4.31	0.050996
4.311	0.047641
4.312	0.045628
4.313	0.045628
4.314	0.045628
4.315	0.045628
4.316	0.044957
4.317	0.044286
4.318	0.043615
4.319	0.042944
4.32	0.042273
4.321	0.041602
4.322	0.04026
4.323	0.038918
4.324	0.037576
4.325	0.036234
4.326	0.034892
4.327	0.034221
4.328	0.03355
4.329	0.032879
4.33	0.032879
4.331	0.032879
4.332	0.032879
4.333	0.032879
4.334	0.032879
4.335	0.032879
4.336	0.032879
4.337	0.031537
4.338	0.030866
4.339	0.030195
4.34	0.030195
4.341	0.030195
4.342	0.030195
4.343	0.030195
4.344	0.030195
4.345	0.030195
4.346	0.030195
4.347	0.030195
4.348	0.030195
4.349	0.030195
4.35	0.029524
4.351	0.028853
4.352	0.028182
4.353	0.027511
4.354	0.02684
4.355	0.026169
4.356	0.025498
4.357	0.024827
4.358	0.023485
4.359	0.022814
4.36	0.022143
4.361	0.022143
4.362	0.022143
4.363	0.022143
4.364	0.022143
4.365	0.022143
4.366	0.022143
4.367	0.022143
4.368	0.022143
4.369	0.022143
4.37	0.022143
4.371	0.022143
4.372	0.022143
4.373	0.022143
4.374	0.021472
4.375	0.02013
4.376	0.018788
4.377	0.017446
4.378	0.015433
4.379	0.014091
4.38	0.012749
4.381	0.011407
4.382	0.010736
4.383	0.010065
4.384	0.009394
4.385	0.008723
4.386	0.008052
4.387	0.00671
4.388	0.00671
4.389	0.00671
4.39	0.00671
4.391	0.00671
4.392	0.00671
4.393	0.00671
4.394	0.00671
4.395	0.00671
4.396	0.00671
4.397	0.00671
4.398	0.00671
4.399	0.006039
4.4	0.004697
4.401	0.004026
4.402	0.002684
4.403	0.001342
4.404	0
4.405	-0.001342
4.406	-0.002013
4.407	-0.002684
4.408	-0.003355
4.409	-0.003355
4.41	-0.003355
4.411	-0.003355
4.412	-0.004026
4.413	-0.004697
4.414	-0.005368
4.415	-0.006039
4.416	-0.006039
4.417	-0.006039
4.418	-0.006039
4.419	-0.007381
4.42	-0.008723
4.421	-0.010736
4.422	-0.012078
4.423	-0.01342
4.424	-0.014762
4.425	-0.016775
4.426	-0.018117
4.427	-0.019459
4.428	-0.020801
4.429	-0.022814
4.43	-0.024156
4.431	-0.025498
4.432	-0.02684
4.433	-0.028853
4.434	-0.030195
4.435	-0.031537
4.436	-0.032879
4.437	-0.034892
4.438	-0.036234
4.439	-0.037576
4.44	-0.038918
4.441	-0.040931
4.442	-0.042273
4.443	-0.043615
4.444	-0.044957
4.445	-0.04697
4.446	-0.048312
4.447	-0.050996
4.448	-0.053009
4.449	-0.055693
4.45	-0.057706
4.451	-0.059719
4.452	-0.062403
4.453	-0.064416
4.454	-0.0671
4.455	-0.069113
4.456	-0.071126
4.457	-0.07381
4.458	-0.075823
4.459	-0.077836
4.46	-0.079849
4.461	-0.081191
4.462	-0.082533
4.463	-0.083875
4.464	-0.085217
4.465	-0.085888
4.466	-0.086559
4.467	-0.08723
4.468	-0.087901
4.469	-0.088572
4.47	-0.089243
4.471	-0.089243
4.472	-0.089243
4.473	-0.089243
4.474	-0.089243
4.475	-0.089243
4.476	-0.089243
4.477	-0.089243
4.478	-0.089243
4.479	-0.089243
4.48	-0.089243
4.481	-0.089243
4.482	-0.089243
4.483	-0.089243
4.484	-0.088572
4.485	-0.087901
4.486	-0.08723
4.487	-0.086559
4.488	-0.086559
4.489	-0.086559
4.49	-0.086559
4.491	-0.085217
4.492	-0.083875
4.493	-0.082533
4.494	-0.08052
4.495	-0.078507
4.496	-0.075823
4.497	-0.07381
4.498	-0.071126
4.499	-0.067771
4.5	-0.065087
4.501	-0.061732
4.502	-0.058377
4.503	-0.055693
4.504	-0.053009
4.505	-0.050325
4.506	-0.048312
4.507	-0.045628
4.508	-0.042944
4.509	-0.04026
4.51	-0.036905
4.511	-0.034221
4.512	-0.030866
4.513	-0.028182
4.514	-0.024827
4.515	-0.021472
4.516	-0.017446
4.517	-0.014091
4.518	-0.010065
4.519	-0.007381
4.52	-0.004026
4.521	-0.001342
4.522	0.001342
4.523	0.003355
4.524	0.005368
4.525	0.007381
4.526	0.008052
4.527	0.008723
4.528	0.009394
4.529	0.009394
4.53	0.009394
4.531	0.009394
4.532	0.009394
4.533	0.009394
4.534	0.009394
4.535	0.009394
4.536	0.011407
4.537	0.012749
4.538	0.014091
4.539	0.015433
4.54	0.016104
4.541	0.016775
4.542	0.017446
4.543	0.019459
4.544	0.020801
4.545	0.022143
4.546	0.022814
4.547	0.024156
4.548	0.024827
4.549	0.024827
4.55	0.024827
4.551	0.024827
4.552	0.024827
4.553	0.024156
4.554	0.023485
4.555	0.022814
4.556	0.022143
4.557	0.021472
4.558	0.020801
4.559	0.02013
4.56	0.02013
4.561	0.02013
4.562	0.02013
4.563	0.020801
4.564	0.022143
4.565	0.024156
4.566	0.025498
4.567	0.02684
4.568	0.028182
4.569	0.030195
4.57	0.031537
4.571	0.032879
4.572	0.034221
4.573	0.036234
4.574	0.037576
4.575	0.038918
4.576	0.04026
4.577	0.04026
4.578	0.038918
4.579	0.038247
4.58	0.037576
4.581	0.036905
4.582	0.036234
4.583	0.035563
4.584	0.034892
4.585	0.034221
4.586	0.032879
4.587	0.032208
4.588	0.030195
4.589	0.028853
4.59	0.027511
4.591	0.02684
4.592	0.026169
4.593	0.025498
4.594	0.024827
4.595	0.023485
4.596	0.022814
4.597	0.022143
4.598	0.022143
4.599	0.022143
4.6	0.022143
4.601	0.022143
4.602	0.022143
4.603	0.022143
4.604	0.022814
4.605	0.023485
4.606	0.024156
4.607	0.024827
4.608	0.025498
4.609	0.02684
4.61	0.027511
4.611	0.027511
4.612	0.027511
4.613	0.027511
4.614	0.027511
4.615	0.02684
4.616	0.026169
4.617	0.025498
4.618	0.024156
4.619	0.022814
4.62	0.020801
4.621	0.019459
4.622	0.018117
4.623	0.016775
4.624	0.014762
4.625	0.014762
4.626	0.014762
4.627	0.014762
4.628	0.014091
4.629	0.01342
4.63	0.012749
4.631	0.012078
4.632	0.012078
4.633	0.012078
4.634	0.012078
4.635	0.012078
4.636	0.012078
4.637	0.012078
4.638	0.012078
4.639	0.012078
4.64	0.012078
4.641	0.012078
4.642	0.012749
4.643	0.01342
4.644	0.014091
4.645	0.014762
4.646	0.015433
4.647	0.016104
4.648	0.016775
4.649	0.018117
4.65	0.018788
4.651	0.019459
4.652	0.02013
4.653	0.020801
4.654	0.021472
4.655	0.022143
4.656	0.021472
4.657	0.020801
4.658	0.02013
4.659	0.02013
4.66	0.02013
4.661	0.02013
4.662	0.02013
4.663	0.02013
4.664	0.02013
4.665	0.02013
4.666	0.02013
4.667	0.020801
4.668	0.021472
4.669	0.022814
4.67	0.023485
4.671	0.024156
4.672	0.024827
4.673	0.024827
4.674	0.024827
4.675	0.024827
4.676	0.024827
4.677	0.024827
4.678	0.024827
4.679	0.024827
4.68	0.024156
4.681	0.022143
4.682	0.020801
4.683	0.019459
4.684	0.018788
4.685	0.018117
4.686	0.017446
4.687	0.016775
4.688	0.016104
4.689	0.014762
4.69	0.014762
4.691	0.014762
4.692	0.014762
4.693	0.014762
4.694	0.014762
4.695	0.014762
4.696	0.014762
4.697	0.015433
4.698	0.016104
4.699	0.016775
4.7	0.017446
4.701	0.018117
4.702	0.018788
4.703	0.019459
4.704	0.02013
4.705	0.021472
4.706	0.022143
4.707	0.022814
4.708	0.023485
4.709	0.024156
4.71	0.024827
4.711	0.025498
4.712	0.026169
4.713	0.027511
4.714	0.027511
4.715	0.027511
4.716	0.027511
4.717	0.027511
4.718	0.027511
4.719	0.027511
4.72	0.027511
4.721	0.027511
4.722	0.027511
4.723	0.027511
4.724	0.027511
4.725	0.02684
4.726	0.026169
4.727	0.025498
4.728	0.024827
4.729	0.024156
4.73	0.022814
4.731	0.022143
4.732	0.022143
4.733	0.022143
4.734	0.022143
4.735	0.022814
4.736	0.023485
4.737	0.024827
4.738	0.025498
4.739	0.026169
4.74	0.02684
4.741	0.027511
4.742	0.028182
4.743	0.028853
4.744	0.029524
4.745	0.030195
4.746	0.028853
4.747	0.028182
4.748	0.027511
4.749	0.02684
4.75	0.026169
4.751	0.025498
4.752	0.024827
4.753	0.024827
4.754	0.024827
4.755	0.025498
4.756	0.02684
4.757	0.028182
4.758	0.029524
4.759	0.031537
4.76	0.034221
4.761	0.036234
4.762	0.038247
4.763	0.038918
4.764	0.039589
4.765	0.04026
4.766	0.040931
4.767	0.040931
4.768	0.040931
4.769	0.04026
4.77	0.038247
4.771	0.036905
4.772	0.035563
4.773	0.034221
4.774	0.032208
4.775	0.030866
4.776	0.030195
4.777	0.030195
4.778	0.030195
4.779	0.030195
4.78	0.030195
4.781	0.030195
4.782	0.030195
4.783	0.030866
4.784	0.031537
4.785	0.032208
4.786	0.032879
4.787	0.032879
4.788	0.032879
4.789	0.032879
4.79	0.032879
4.791	0.032879
4.792	0.032879
4.793	0.032879
4.794	0.032879
4.795	0.032879
4.796	0.032879
4.797	0.032879
4.798	0.032879
4.799	0.032879
4.8	0.032879
4.801	0.032879
4.802	0.032879
4.803	0.032879
4.804	0.03355
4.805	0.034221
4.806	0.034892
4.807	0.035563
4.808	0.035563
4.809	0.035563
4.81	0.035563
4.811	0.035563
4.812	0.035563
4.813	0.035563
4.814	0.035563
4.815	0.035563
4.816	0.035563
4.817	0.035563
4.818	0.034221
4.819	0.03355
4.82	0.032879
4.821	0.032208
4.822	0.031537
4.823	0.030866
4.824	0.030195
4.825	0.030195
4.826	0.030195
4.827	0.030195
4.828	0.030866
4.829	0.031537
4.83	0.032208
4.831	0.032879
4.832	0.034221
4.833	0.034892
4.834	0.035563
4.835	0.036234
4.836	0.036905
4.837	0.037576
4.838	0.038247
4.839	0.038247
4.84	0.038247
4.841	0.038247
4.842	0.038247
4.843	0.038247
4.844	0.038247
4.845	0.038247
4.846	0.039589
4.847	0.04026
4.848	0.040931
4.849	0.041602
4.85	0.042273
4.851	0.042944
4.852	0.042944
4.853	0.042944
4.854	0.042944
4.855	0.042944
4.856	0.042944
4.857	0.042944
4.858	0.042944
4.859	0.042273
4.86	0.041602
4.861	0.040931
4.862	0.04026
4.863	0.039589
4.864	0.038918
4.865	0.038247
4.866	0.036905
4.867	0.036234
4.868	0.035563
4.869	0.036234
4.87	0.036905
4.871	0.037576
4.872	0.038247
4.873	0.040931
4.874	0.042944
4.875	0.044957
4.876	0.04697
4.877	0.048312
4.878	0.049654
4.879	0.050996
4.88	0.052338
4.881	0.053009
4.882	0.05368
4.883	0.052338
4.884	0.050996
4.885	0.048983
4.886	0.047641
4.887	0.046299
4.888	0.044957
4.889	0.042944
4.89	0.041602
4.891	0.04026
4.892	0.038918
4.893	0.038247
4.894	0.038918
4.895	0.04026
4.896	0.040931
4.897	0.041602
4.898	0.042273
4.899	0.042944
4.9	0.042944
4.901	0.042944
4.902	0.042944
4.903	0.042944
4.904	0.042944
4.905	0.042944
4.906	0.042944
4.907	0.042273
4.908	0.04026
4.909	0.038918
4.91	0.037576
4.911	0.036905
4.912	0.036234
4.913	0.035563
4.914	0.035563
4.915	0.035563
4.916	0.035563
4.917	0.034892
4.918	0.034221
4.919	0.03355
4.92	0.032879
4.921	0.032879
4.922	0.032879
4.923	0.032879
4.924	0.031537
4.925	0.030195
4.926	0.028853
4.927	0.027511
4.928	0.025498
4.929	0.024156
4.93	0.022814
4.931	0.021472
4.932	0.019459
4.933	0.018117
4.934	0.017446
4.935	0.017446
4.936	0.017446
4.937	0.017446
4.938	0.017446
4.939	0.017446
4.94	0.017446
4.941	0.016775
4.942	0.016104
4.943	0.015433
4.944	0.014762
4.945	0.012078
4.946	0.010065
4.947	0.008052
4.948	0.004697
4.949	0.000671
4.95	-0.002684
4.951	-0.00671
4.952	-0.009394
4.953	-0.012749
4.954	-0.015433
4.955	-0.018788
4.956	-0.021472
4.957	-0.024827
4.958	-0.027511
4.959	-0.028853
4.96	-0.030195
4.961	-0.031537
4.962	-0.03355
4.963	-0.034892
4.964	-0.036234
4.965	-0.037576
4.966	-0.038247
4.967	-0.038918
4.968	-0.039589
4.969	-0.041602
4.97	-0.042944
4.971	-0.044286
4.972	-0.044957
4.973	-0.044957
4.974	-0.044957
4.975	-0.044957
4.976	-0.044286
4.977	-0.043615
4.978	-0.042944
4.979	-0.041602
4.98	-0.04026
4.981	-0.038247
4.982	-0.036905
4.983	-0.035563
4.984	-0.034221
4.985	-0.032208
4.986	-0.032208
4.987	-0.032208
4.988	-0.032208
4.989	-0.032208
4.99	-0.032879
4.991	-0.034221
4.992	-0.034892
4.993	-0.035563
4.994	-0.036234
4.995	-0.036905
4.996	-0.037576
4.997	-0.038247
4.998	-0.038918
4.999	-0.039589
5	-0.039589
5.001	-0.039589
5.002	-0.039589
5.003	-0.039589
5.004	-0.039589
5.005	-0.039589
5.006	-0.039589
5.007	-0.038918
5.008	-0.038247
5.009	-0.037576
5.01	-0.037576
5.011	-0.037576
5.012	-0.037576
5.013	-0.036905
5.014	-0.036234
5.015	-0.035563
5.016	-0.034892
5.017	-0.034221
5.018	-0.03355
5.019	-0.032208
5.02	-0.031537
5.021	-0.030866
5.022	-0.030195
5.023	-0.029524
5.024	-0.029524
5.025	-0.029524
5.026	-0.029524
5.027	-0.029524
5.028	-0.029524
5.029	-0.029524
5.03	-0.029524
5.031	-0.029524
5.032	-0.029524
5.033	-0.029524
5.034	-0.029524
5.035	-0.029524
5.036	-0.029524
5.037	-0.029524
5.038	-0.028182
5.039	-0.027511
5.04	-0.02684
5.041	-0.026169
5.042	-0.025498
5.043	-0.024827
5.044	-0.024156
5.045	-0.023485
5.046	-0.022143
5.047	-0.021472
5.048	-0.02013
5.049	-0.018788
5.05	-0.016775
5.051	-0.015433
5.052	-0.014091
5.053	-0.012749
5.054	-0.011407
5.055	-0.010736
5.056	-0.009394
5.057	-0.008723
5.058	-0.010065
5.059	-0.011407
5.06	-0.012749
5.061	-0.016104
5.062	-0.022814
5.063	-0.029524
5.064	-0.036234
5.065	-0.049654
5.066	-0.064416
5.067	-0.078507
5.068	-0.096624
5.069	-0.118096
5.07	-0.140239
5.071	-0.161711
5.072	-0.188551
5.073	-0.21472
5.074	-0.240218
5.075	-0.264374
5.076	-0.286517
5.077	-0.307318
5.078	-0.324764
5.079	-0.3355
5.08	-0.345565
5.081	-0.354959
5.082	-0.356972
5.083	-0.356972
5.084	-0.356301
5.085	-0.352946
5.086	-0.341539
5.087	-0.32879
5.088	-0.314699
5.089	-0.290543
5.09	-0.262361
5.091	-0.232837
5.092	-0.200629
5.093	-0.165737
5.094	-0.130845
5.095	-0.095282
5.096	-0.069784
5.097	-0.044957
5.098	-0.02013
5.099	-0.003355
5.1	0.00671
5.101	0.016104
5.102	0.024827
5.103	0.021472
5.104	0.018788
5.105	0.015433
5.106	0.009394
5.107	0.002013
5.108	-0.005368
5.109	-0.012749
5.11	-0.018788
5.111	-0.024827
5.112	-0.030866
5.113	-0.03355
5.114	-0.034892
5.115	-0.036234
5.116	-0.037576
5.117	-0.037576
5.118	-0.037576
5.119	-0.037576
5.12	-0.036905
5.121	-0.035563
5.122	-0.034892
5.123	-0.034892
5.124	-0.035563
5.125	-0.036905
5.126	-0.037576
5.127	-0.038247
5.128	-0.038918
5.129	-0.039589
5.13	-0.039589
5.131	-0.038918
5.132	-0.037576
5.133	-0.036905
5.134	-0.035563
5.135	-0.034221
5.136	-0.032208
5.137	-0.031537
5.138	-0.030866
5.139	-0.030195
5.14	-0.029524
5.141	-0.028182
5.142	-0.027511
5.143	-0.02684
5.144	-0.02684
5.145	-0.02684
5.146	-0.02684
5.147	-0.02684
5.148	-0.025498
5.149	-0.024827
5.15	-0.024156
5.151	-0.024156
5.152	-0.024156
5.153	-0.024156
5.154	-0.024156
5.155	-0.024156
5.156	-0.024156
5.157	-0.024156
5.158	-0.025498
5.159	-0.026169
5.16	-0.02684
5.161	-0.027511
5.162	-0.028182
5.163	-0.028853
5.164	-0.029524
5.165	-0.030195
5.166	-0.031537
5.167	-0.032208
5.168	-0.032208
5.169	-0.032208
5.17	-0.032208
5.171	-0.032208
5.172	-0.032208
5.173	-0.032208
5.174	-0.032208
5.175	-0.032208
5.176	-0.032208
5.177	-0.032208
5.178	-0.032208
5.179	-0.03355
5.18	-0.034221
5.181	-0.034892
5.182	-0.036234
5.183	-0.038247
5.184	-0.039589
5.185	-0.040931
5.186	-0.042273
5.187	-0.044286
5.188	-0.045628
5.189	-0.046299
5.19	-0.04697
5.191	-0.047641
5.192	-0.047641
5.193	-0.047641
5.194	-0.047641
5.195	-0.047641
5.196	-0.047641
5.197	-0.047641
5.198	-0.047641
5.199	-0.047641
5.2	-0.047641
5.201	-0.047641
5.202	-0.048312
5.203	-0.048983
5.204	-0.049654
5.205	-0.050325
5.206	-0.050996
5.207	-0.051667
5.208	-0.052338
5.209	-0.05368
5.21	-0.054351
5.211	-0.055022
5.212	-0.055693
5.213	-0.055693
5.214	-0.055693
5.215	-0.055693
5.216	-0.055693
5.217	-0.055693
5.218	-0.055693
5.219	-0.055693
5.22	-0.055693
5.221	-0.055693
5.222	-0.055693
5.223	-0.055693
5.224	-0.055693
5.225	-0.055693
5.226	-0.056364
5.227	-0.057706
5.228	-0.059048
5.229	-0.061061
5.23	-0.063074
5.231	-0.065087
5.232	-0.067771
5.233	-0.069784
5.234	-0.071797
5.235	-0.074481
5.236	-0.076494
5.237	-0.077836
5.238	-0.079178
5.239	-0.081191
5.24	-0.083204
5.241	-0.085217
5.242	-0.08723
5.243	-0.089914
5.244	-0.091927
5.245	-0.094611
5.246	-0.096624
5.247	-0.098637
5.248	-0.101321
5.249	-0.103334
5.25	-0.105347
5.251	-0.108031
5.252	-0.110044
5.253	-0.112728
5.254	-0.11407
5.255	-0.115412
5.256	-0.116754
5.257	-0.118767
5.258	-0.120109
5.259	-0.121451
5.26	-0.122793
5.261	-0.123464
5.262	-0.124135
5.263	-0.125477
5.264	-0.126148
5.265	-0.126819
5.266	-0.12749
5.267	-0.128161
5.268	-0.130174
5.269	-0.131516
5.27	-0.132858
5.271	-0.133529
5.272	-0.1342
5.273	-0.135542
5.274	-0.136213
5.275	-0.136884
5.276	-0.137555
5.277	-0.138226
5.278	-0.138897
5.279	-0.139568
5.28	-0.140239
5.281	-0.14091
5.282	-0.14091
5.283	-0.14091
5.284	-0.14091
5.285	-0.140239
5.286	-0.139568
5.287	-0.138226
5.288	-0.137555
5.289	-0.135542
5.29	-0.1342
5.291	-0.132187
5.292	-0.128832
5.293	-0.124806
5.294	-0.12078
5.295	-0.117425
5.296	-0.113399
5.297	-0.110044
5.298	-0.106018
5.299	-0.101992
5.3	-0.098637
5.301	-0.094611
5.302	-0.091927
5.303	-0.088572
5.304	-0.085888
5.305	-0.081862
5.306	-0.078507
5.307	-0.074481
5.308	-0.071126
5.309	-0.0671
5.31	-0.063074
5.311	-0.059719
5.312	-0.055022
5.313	-0.050996
5.314	-0.046299
5.315	-0.041602
5.316	-0.038247
5.317	-0.034221
5.318	-0.030195
5.319	-0.027511
5.32	-0.025498
5.321	-0.023485
5.322	-0.021472
5.323	-0.019459
5.324	-0.018117
5.325	-0.016775
5.326	-0.015433
5.327	-0.01342
5.328	-0.012078
5.329	-0.010065
5.33	-0.00671
5.331	-0.004026
5.332	-0.000671
5.333	0.002684
5.334	0.00671
5.335	0.010065
5.336	0.01342
5.337	0.016775
5.338	0.019459
5.339	0.022814
5.34	0.024156
5.341	0.025498
5.342	0.02684
5.343	0.028182
5.344	0.028853
5.345	0.029524
5.346	0.030195
5.347	0.029524
5.348	0.028853
5.349	0.027511
5.35	0.028182
5.351	0.028853
5.352	0.029524
5.353	0.030195
5.354	0.031537
5.355	0.032208
5.356	0.032879
5.357	0.034221
5.358	0.035563
5.359	0.037576
5.36	0.038247
5.361	0.038247
5.362	0.038247
5.363	0.038247
5.364	0.038247
5.365	0.038247
5.366	0.038247
5.367	0.038247
5.368	0.038247
5.369	0.038247
5.37	0.038247
5.371	0.038918
5.372	0.039589
5.373	0.04026
5.374	0.040931
5.375	0.042273
5.376	0.042944
5.377	0.043615
5.378	0.044957
5.379	0.04697
5.38	0.048312
5.381	0.048312
5.382	0.048312
5.383	0.048312
5.384	0.048312
5.385	0.048312
5.386	0.048312
5.387	0.048312
5.388	0.047641
5.389	0.04697
5.39	0.046299
5.391	0.045628
5.392	0.044957
5.393	0.043615
5.394	0.042944
5.395	0.042944
5.396	0.042944
5.397	0.042944
5.398	0.043615
5.399	0.044286
5.4	0.044957
5.401	0.045628
5.402	0.045628
5.403	0.045628
5.404	0.045628
5.405	0.045628
5.406	0.045628
5.407	0.045628
5.408	0.045628
5.409	0.045628
5.41	0.045628
5.411	0.045628
5.412	0.04697
5.413	0.048983
5.414	0.050325
5.415	0.051667
5.416	0.052338
5.417	0.053009
5.418	0.05368
5.419	0.054351
5.42	0.055022
5.421	0.055693
5.422	0.056364
5.423	0.056364
5.424	0.056364
5.425	0.056364
5.426	0.055022
5.427	0.054351
5.428	0.05368
5.429	0.053009
5.43	0.052338
5.431	0.051667
5.432	0.050996
5.433	0.050996
5.434	0.050996
5.435	0.050996
5.436	0.050996
5.437	0.050996
5.438	0.050996
5.439	0.050996
5.44	0.049654
5.441	0.048983
5.442	0.048312
5.443	0.047641
5.444	0.04697
5.445	0.046299
5.446	0.045628
5.447	0.045628
5.448	0.045628
5.449	0.045628
5.45	0.044957
5.451	0.044286
5.452	0.043615
5.453	0.043615
5.454	0.044286
5.455	0.044957
5.456	0.046299
5.457	0.047641
5.458	0.048983
5.459	0.050996
5.46	0.051667
5.461	0.052338
5.462	0.053009
5.463	0.05368
5.464	0.054351
5.465	0.055693
5.466	0.056364
5.467	0.056364
5.468	0.056364
5.469	0.056364
5.47	0.055693
5.471	0.055022
5.472	0.054351
5.473	0.05368
5.474	0.053009
5.475	0.052338
5.476	0.050996
5.477	0.050996
5.478	0.050996
5.479	0.050996
5.48	0.050996
5.481	0.053009
5.482	0.054351
5.483	0.055693
5.484	0.057706
5.485	0.059048
5.486	0.06039
5.487	0.061732
5.488	0.062403
5.489	0.063074
5.49	0.063745
5.491	0.064416
5.492	0.065758
5.493	0.066429
5.494	0.066429
5.495	0.065758
5.496	0.064416
5.497	0.063745
5.498	0.063074
5.499	0.062403
5.5	0.061732
5.501	0.061061
5.502	0.06039
5.503	0.059719
5.504	0.058377
5.505	0.057706
5.506	0.057035
5.507	0.056364
5.508	0.057035
5.509	0.057706
5.51	0.058377
5.511	0.059048
5.512	0.059048
5.513	0.059048
5.514	0.059048
5.515	0.059048
5.516	0.059048
5.517	0.059048
5.518	0.059048
5.519	0.059048
5.52	0.059048
5.521	0.059048
5.522	0.059048
5.523	0.059048
5.524	0.059048
5.525	0.059048
5.526	0.059719
5.527	0.06039
5.528	0.061732
5.529	0.063074
5.53	0.064416
5.531	0.066429
5.532	0.067771
5.533	0.069113
5.534	0.070455
5.535	0.071797
5.536	0.072468
5.537	0.07381
5.538	0.074481
5.539	0.075152
5.54	0.075823
5.541	0.076494
5.542	0.077165
5.543	0.077165
5.544	0.077165
5.545	0.077165
5.546	0.076494
5.547	0.075823
5.548	0.074481
5.549	0.07381
5.55	0.073139
5.551	0.072468
5.552	0.071797
5.553	0.071126
5.554	0.070455
5.555	0.069784
5.556	0.069113
5.557	0.069113
5.558	0.069113
5.559	0.069113
5.56	0.069784
5.561	0.071126
5.562	0.071797
5.563	0.072468
5.564	0.073139
5.565	0.07381
5.566	0.075152
5.567	0.077165
5.568	0.079849
5.569	0.081862
5.57	0.082533
5.571	0.083875
5.572	0.084546
5.573	0.084546
5.574	0.084546
5.575	0.084546
5.576	0.084546
5.577	0.083204
5.578	0.081862
5.579	0.08052
5.58	0.079178
5.581	0.078507
5.582	0.077836
5.583	0.077165
5.584	0.075823
5.585	0.075152
5.586	0.074481
5.587	0.074481
5.588	0.074481
5.589	0.074481
5.59	0.074481
5.591	0.074481
5.592	0.074481
5.593	0.074481
5.594	0.074481
5.595	0.074481
5.596	0.074481
5.597	0.074481
5.598	0.074481
5.599	0.074481
5.6	0.074481
5.601	0.074481
5.602	0.074481
5.603	0.074481
5.604	0.074481
5.605	0.074481
5.606	0.074481
5.607	0.074481
5.608	0.074481
5.609	0.074481
5.61	0.074481
5.611	0.07381
5.612	0.073139
5.613	0.072468
5.614	0.071797
5.615	0.071126
5.616	0.070455
5.617	0.069113
5.618	0.069113
5.619	0.069113
5.62	0.069113
5.621	0.069113
5.622	0.070455
5.623	0.071126
5.624	0.071797
5.625	0.072468
5.626	0.073139
5.627	0.07381
5.628	0.074481
5.629	0.074481
5.63	0.074481
5.631	0.074481
5.632	0.074481
5.633	0.074481
5.634	0.074481
5.635	0.07381
5.636	0.071797
5.637	0.070455
5.638	0.069113
5.639	0.067771
5.64	0.065758
5.641	0.064416
5.642	0.063745
5.643	0.063074
5.644	0.061732
5.645	0.061732
5.646	0.061732
5.647	0.061732
5.648	0.061732
5.649	0.061732
5.65	0.061732
5.651	0.061732
5.652	0.061732
5.653	0.062403
5.654	0.063074
5.655	0.063745
5.656	0.064416
5.657	0.065758
5.658	0.066429
5.659	0.066429
5.66	0.066429
5.661	0.066429
5.662	0.066429
5.663	0.066429
5.664	0.066429
5.665	0.066429
5.666	0.065758
5.667	0.064416
5.668	0.062403
5.669	0.061061
5.67	0.059719
5.671	0.058377
5.672	0.056364
5.673	0.055693
5.674	0.055022
5.675	0.054351
5.676	0.05368
5.677	0.05368
5.678	0.05368
5.679	0.05368
5.68	0.054351
5.681	0.055022
5.682	0.055693
5.683	0.056364
5.684	0.056364
5.685	0.056364
5.686	0.056364
5.687	0.056364
5.688	0.056364
5.689	0.056364
5.69	0.055022
5.691	0.05368
5.692	0.052338
5.693	0.050996
5.694	0.050996
5.695	0.050996
5.696	0.050996
5.697	0.050996
5.698	0.050996
5.699	0.050996
5.7	0.050996
5.701	0.050325
5.702	0.048983
5.703	0.048312
5.704	0.047641
5.705	0.04697
5.706	0.046299
5.707	0.044957
5.708	0.042944
5.709	0.04026
5.71	0.038247
5.711	0.034892
5.712	0.032208
5.713	0.028853
5.714	0.02684
5.715	0.025498
5.716	0.024156
5.717	0.022143
5.718	0.021472
5.719	0.020801
5.72	0.02013
5.721	0.02013
5.722	0.020801
5.723	0.022143
5.724	0.022814
5.725	0.024156
5.726	0.025498
5.727	0.027511
5.728	0.030195
5.729	0.032879
5.73	0.036234
5.731	0.038918
5.732	0.040931
5.733	0.043615
5.734	0.045628
5.735	0.047641
5.736	0.050325
5.737	0.052338
5.738	0.054351
5.739	0.055693
5.74	0.057035
5.741	0.059048
5.742	0.059719
5.743	0.06039
5.744	0.061061
5.745	0.061732
5.746	0.062403
5.747	0.063074
5.748	0.064416
5.749	0.065087
5.75	0.065758
5.751	0.066429
5.752	0.067771
5.753	0.069113
5.754	0.070455
5.755	0.071797
5.756	0.071797
5.757	0.071797
5.758	0.071797
5.759	0.071126
5.76	0.070455
5.761	0.069784
5.762	0.069113
5.763	0.068442
5.764	0.0671
5.765	0.066429
5.766	0.065087
5.767	0.063745
5.768	0.061732
5.769	0.061732
5.77	0.061732
5.771	0.061732
5.772	0.061732
5.773	0.062403
5.774	0.063074
5.775	0.063745
5.776	0.064416
5.777	0.065087
5.778	0.065758
5.779	0.0671
5.78	0.067771
5.781	0.068442
5.782	0.069113
5.783	0.070455
5.784	0.071797
5.785	0.073139
5.786	0.074481
5.787	0.075152
5.788	0.076494
5.789	0.077165
5.79	0.076494
5.791	0.075823
5.792	0.074481
5.793	0.07381
5.794	0.073139
5.795	0.072468
5.796	0.071797
5.797	0.071126
5.798	0.070455
5.799	0.069113
5.8	0.068442
5.801	0.067771
5.802	0.0671
5.803	0.0671
5.804	0.067771
5.805	0.068442
5.806	0.069113
5.807	0.070455
5.808	0.071797
5.809	0.073139
5.81	0.074481
5.811	0.075152
5.812	0.076494
5.813	0.077165
5.814	0.077165
5.815	0.077165
5.816	0.077165
5.817	0.077165
5.818	0.077165
5.819	0.077165
5.82	0.077165
5.821	0.075823
5.822	0.075152
5.823	0.074481
5.824	0.072468
5.825	0.069784
5.826	0.066429
5.827	0.061732
5.828	0.050996
5.829	0.040931
5.83	0.030195
5.831	0.01342
5.832	-0.005368
5.833	-0.024156
5.834	-0.045628
5.835	-0.071126
5.836	-0.096624
5.837	-0.122122
5.838	-0.148291
5.839	-0.173118
5.84	-0.198616
5.841	-0.218746
5.842	-0.233508
5.843	-0.248941
5.844	-0.262361
5.845	-0.264374
5.846	-0.265716
5.847	-0.267058
5.848	-0.259677
5.849	-0.245586
5.85	-0.231495
5.851	-0.215391
5.852	-0.189222
5.853	-0.163053
5.854	-0.136213
5.855	-0.106689
5.856	-0.077165
5.857	-0.04697
5.858	-0.018117
5.859	0.006039
5.86	0.030195
5.861	0.054351
5.862	0.069784
5.863	0.083204
5.864	0.097295
5.865	0.106018
5.866	0.10736
5.867	0.108702
5.868	0.110715
5.869	0.106018
5.87	0.10065
5.871	0.094611
5.872	0.087901
5.873	0.079849
5.874	0.071126
5.875	0.063074
5.876	0.057706
5.877	0.053009
5.878	0.048983
5.879	0.044957
5.88	0.043615
5.881	0.042273
5.882	0.040931
5.883	0.040931
5.884	0.040931
5.885	0.040931
5.886	0.04026
5.887	0.039589
5.888	0.038918
5.889	0.038247
5.89	0.038247
5.891	0.038247
5.892	0.038247
5.893	0.038247
5.894	0.039589
5.895	0.04026
5.896	0.040931
5.897	0.042273
5.898	0.044286
5.899	0.045628
5.9	0.04697
5.901	0.048312
5.902	0.049654
5.903	0.050996
5.904	0.050996
5.905	0.050996
5.906	0.050996
5.907	0.049654
5.908	0.048312
5.909	0.04697
5.91	0.044957
5.911	0.042944
5.912	0.04026
5.913	0.038247
5.914	0.036234
5.915	0.034892
5.916	0.03355
5.917	0.032879
5.918	0.032879
5.919	0.032879
5.92	0.032879
5.921	0.03355
5.922	0.034221
5.923	0.034892
5.924	0.035563
5.925	0.035563
5.926	0.035563
5.927	0.035563
5.928	0.035563
5.929	0.035563
5.93	0.035563
5.931	0.034892
5.932	0.034221
5.933	0.03355
5.934	0.032879
5.935	0.031537
5.936	0.030866
5.937	0.030195
5.938	0.030195
5.939	0.030195
5.94	0.030195
5.941	0.030195
5.942	0.030195
5.943	0.030195
5.944	0.030195
5.945	0.030195
5.946	0.030195
5.947	0.030195
5.948	0.030195
5.949	0.030195
5.95	0.030195
5.951	0.030195
5.952	0.029524
5.953	0.028853
5.954	0.027511
5.955	0.02684
5.956	0.024827
5.957	0.023485
5.958	0.021472
5.959	0.019459
5.96	0.017446
5.961	0.014762
5.962	0.01342
5.963	0.012078
5.964	0.010065
5.965	0.009394
5.966	0.008052
5.967	0.007381
5.968	0.00671
5.969	0.006039
5.97	0.005368
5.971	0.004697
5.972	0.004026
5.973	0.003355
5.974	0.002013
5.975	0.001342
5.976	0
5.977	-0.001342
5.978	-0.003355
5.979	-0.004026
5.98	-0.004697
5.981	-0.005368
5.982	-0.006039
5.983	-0.007381
5.984	-0.008052
5.985	-0.008723
5.986	-0.009394
5.987	-0.010065
5.988	-0.010736
5.989	-0.010736
5.99	-0.010065
5.991	-0.009394
5.992	-0.008723
5.993	-0.008723
5.994	-0.008723
5.995	-0.008723
5.996	-0.009394
5.997	-0.010736
5.998	-0.012749
5.999	-0.014091
6	-0.016104
6.001	-0.018788
6.002	-0.020801
6.003	-0.023485
6.004	-0.02684
6.005	-0.029524
6.006	-0.032879
6.007	-0.035563
6.008	-0.038918
6.009	-0.041602
6.01	-0.044286
6.011	-0.046299
6.012	-0.048983
6.013	-0.050996
6.014	-0.052338
6.015	-0.05368
6.016	-0.055022
6.017	-0.057035
6.018	-0.058377
6.019	-0.059719
6.02	-0.061061
6.021	-0.063074
6.022	-0.064416
6.023	-0.065758
6.024	-0.0671
6.025	-0.069113
6.026	-0.070455
6.027	-0.071797
6.028	-0.073139
6.029	-0.075152
6.03	-0.076494
6.031	-0.076494
6.032	-0.076494
6.033	-0.076494
6.034	-0.076494
6.035	-0.076494
6.036	-0.076494
6.037	-0.076494
6.038	-0.076494
6.039	-0.076494
6.04	-0.076494
6.041	-0.077165
6.042	-0.077836
6.043	-0.078507
6.044	-0.079178
6.045	-0.079849
6.046	-0.08052
6.047	-0.081191
6.048	-0.081862
6.049	-0.083204
6.05	-0.083875
6.051	-0.083875
6.052	-0.083875
6.053	-0.083875
6.054	-0.083875
6.055	-0.083204
6.056	-0.082533
6.057	-0.081862
6.058	-0.079849
6.059	-0.077836
6.06	-0.075152
6.061	-0.073139
6.062	-0.071126
6.063	-0.068442
6.064	-0.066429
6.065	-0.063074
6.066	-0.06039
6.067	-0.057035
6.068	-0.054351
6.069	-0.050996
6.07	-0.048312
6.071	-0.044957
6.072	-0.042273
6.073	-0.038918
6.074	-0.036234
6.075	-0.032879
6.076	-0.030195
6.077	-0.02684
6.078	-0.024156
6.079	-0.022814
6.08	-0.021472
6.081	-0.019459
6.082	-0.018117
6.083	-0.016775
6.084	-0.015433
6.085	-0.01342
6.086	-0.012078
6.087	-0.010736
6.088	-0.008723
6.089	-0.007381
6.09	-0.006039
6.091	-0.004697
6.092	-0.002684
6.093	0.000671
6.094	0.003355
6.095	0.00671
6.096	0.009394
6.097	0.012749
6.098	0.015433
6.099	0.018117
6.1	0.019459
6.101	0.020801
6.102	0.022814
6.103	0.024156
6.104	0.025498
6.105	0.02684
6.106	0.027511
6.107	0.027511
6.108	0.027511
6.109	0.027511
6.11	0.02684
6.111	0.026169
6.112	0.025498
6.113	0.024827
6.114	0.024827
6.115	0.024827
6.116	0.025498
6.117	0.026169
6.118	0.02684
6.119	0.027511
6.12	0.028182
6.121	0.028853
6.122	0.029524
6.123	0.030866
6.124	0.031537
6.125	0.032208
6.126	0.032879
6.127	0.03355
6.128	0.034221
6.129	0.034892
6.13	0.035563
6.131	0.035563
6.132	0.035563
6.133	0.035563
6.134	0.035563
6.135	0.035563
6.136	0.035563
6.137	0.034892
6.138	0.034221
6.139	0.03355
6.14	0.032879
6.141	0.032879
6.142	0.032879
6.143	0.032879
6.144	0.032208
6.145	0.031537
6.146	0.030866
6.147	0.030195
6.148	0.030195
6.149	0.030195
6.15	0.030195
6.151	0.029524
6.152	0.028853
6.153	0.028182
6.154	0.027511
6.155	0.027511
6.156	0.027511
6.157	0.027511
6.158	0.027511
6.159	0.027511
6.16	0.027511
6.161	0.027511
6.162	0.027511
6.163	0.027511
6.164	0.027511
6.165	0.02684
6.166	0.026169
6.167	0.025498
6.168	0.024827
6.169	0.024827
6.17	0.024827
6.171	0.025498
6.172	0.026169
6.173	0.02684
6.174	0.027511
6.175	0.028182
6.176	0.028853
6.177	0.029524
6.178	0.030195
6.179	0.030195
6.18	0.030195
6.181	0.030195
6.182	0.030195
6.183	0.030195
6.184	0.030195
6.185	0.029524
6.186	0.028182
6.187	0.026169
6.188	0.024827
6.189	0.024156
6.19	0.023485
6.191	0.022814
6.192	0.022143
6.193	0.021472
6.194	0.02013
6.195	0.019459
6.196	0.018788
6.197	0.018117
6.198	0.017446
6.199	0.018117
6.2	0.018788
6.201	0.019459
6.202	0.02013
6.203	0.020801
6.204	0.021472
6.205	0.022143
6.206	0.023485
6.207	0.024156
6.208	0.024827
6.209	0.025498
6.21	0.026169
6.211	0.02684
6.212	0.027511
6.213	0.027511
6.214	0.027511
6.215	0.027511
6.216	0.027511
6.217	0.026169
6.218	0.025498
6.219	0.024827
6.22	0.022143
6.221	0.02013
6.222	0.018117
6.223	0.016775
6.224	0.016104
6.225	0.015433
6.226	0.014762
6.227	0.014762
6.228	0.014762
6.229	0.014762
6.23	0.015433
6.231	0.016104
6.232	0.016775
6.233	0.018117
6.234	0.019459
6.235	0.020801
6.236	0.022143
6.237	0.023485
6.238	0.024156
6.239	0.024827
6.24	0.024827
6.241	0.024156
6.242	0.022814
6.243	0.022143
6.244	0.022143
6.245	0.022143
6.246	0.022143
6.247	0.022143
6.248	0.021472
6.249	0.02013
6.25	0.02013
6.251	0.02013
6.252	0.02013
6.253	0.02013
6.254	0.02013
6.255	0.02013
6.256	0.02013
6.257	0.02013
6.258	0.02013
6.259	0.02013
6.26	0.02013
6.261	0.020801
6.262	0.021472
6.263	0.022143
6.264	0.022814
6.265	0.023485
6.266	0.024156
6.267	0.024827
6.268	0.025498
6.269	0.02684
6.27	0.027511
6.271	0.028182
6.272	0.028853
6.273	0.029524
6.274	0.030195
6.275	0.030195
6.276	0.030195
6.277	0.030195
6.278	0.030195
6.279	0.030195
6.28	0.030195
6.281	0.030195
6.282	0.030195
6.283	0.030195
6.284	0.030195
6.285	0.030866
6.286	0.031537
6.287	0.032208
6.288	0.032879
6.289	0.032879
6.29	0.032879
6.291	0.032879
6.292	0.032879
6.293	0.032879
6.294	0.032879
6.295	0.032208
6.296	0.031537
6.297	0.030866
6.298	0.030195
6.299	0.029524
6.3	0.028853
6.301	0.028182
6.302	0.027511
6.303	0.027511
6.304	0.027511
6.305	0.027511
6.306	0.028853
6.307	0.029524
6.308	0.030195
6.309	0.030195
6.31	0.030195
6.311	0.030195
6.312	0.030195
6.313	0.030195
6.314	0.030195
6.315	0.030195
6.316	0.028853
6.317	0.027511
6.318	0.026169
6.319	0.024827
6.32	0.024156
6.321	0.023485
6.322	0.022143
6.323	0.021472
6.324	0.020801
6.325	0.02013
6.326	0.02013
6.327	0.020801
6.328	0.021472
6.329	0.022814
6.33	0.023485
6.331	0.024156
6.332	0.024827
6.333	0.025498
6.334	0.026169
6.335	0.02684
6.336	0.027511
6.337	0.027511
6.338	0.027511
6.339	0.027511
6.34	0.02684
6.341	0.026169
6.342	0.025498
6.343	0.024827
6.344	0.024156
6.345	0.023485
6.346	0.022143
6.347	0.022143
6.348	0.022143
6.349	0.022143
6.35	0.023485
6.351	0.024827
6.352	0.026169
6.353	0.028182
6.354	0.030195
6.355	0.032208
6.356	0.034892
6.357	0.036234
6.358	0.038247
6.359	0.039589
6.36	0.040931
6.361	0.041602
6.362	0.042273
6.363	0.042944
6.364	0.042944
6.365	0.041602
6.366	0.040931
6.367	0.04026
6.368	0.038918
6.369	0.036905
6.37	0.035563
6.371	0.034221
6.372	0.032208
6.373	0.030866
6.374	0.030195
6.375	0.028853
6.376	0.028182
6.377	0.027511
6.378	0.02684
6.379	0.026169
6.38	0.025498
6.381	0.024827
6.382	0.024827
6.383	0.024827
6.384	0.024827
6.385	0.024827
6.386	0.024827
6.387	0.024827
6.388	0.025498
6.389	0.026169
6.39	0.02684
6.391	0.028182
6.392	0.028853
6.393	0.029524
6.394	0.030195
6.395	0.030866
6.396	0.031537
6.397	0.032208
6.398	0.032879
6.399	0.032879
6.4	0.032879
6.401	0.032879
6.402	0.032879
6.403	0.032879
6.404	0.032879
6.405	0.032879
6.406	0.032879
6.407	0.032879
6.408	0.032879
6.409	0.032879
6.41	0.032879
6.411	0.032879
6.412	0.032879
6.413	0.032879
6.414	0.032879
6.415	0.032879
6.416	0.032879
6.417	0.032879
6.418	0.032879
6.419	0.03355
6.42	0.034221
6.421	0.034892
6.422	0.034892
6.423	0.03355
6.424	0.031537
6.425	0.030195
6.426	0.028853
6.427	0.027511
6.428	0.025498
6.429	0.023485
6.43	0.020801
6.431	0.017446
6.432	0.014762
6.433	0.012749
6.434	0.011407
6.435	0.010065
6.436	0.010065
6.437	0.010736
6.438	0.011407
6.439	0.012078
6.44	0.012749
6.441	0.01342
6.442	0.014762
6.443	0.016104
6.444	0.017446
6.445	0.018788
6.446	0.02013
6.447	0.02013
6.448	0.02013
6.449	0.02013
6.45	0.018788
6.451	0.016775
6.452	0.015433
6.453	0.01342
6.454	0.010065
6.455	0.007381
6.456	0.004026
6.457	0.002013
6.458	0
6.459	-0.002684
6.46	-0.004026
6.461	-0.004697
6.462	-0.005368
6.463	-0.006039
6.464	-0.005368
6.465	-0.004697
6.466	-0.004026
6.467	-0.002684
6.468	-0.002013
6.469	-0.001342
6.47	-0.000671
6.471	-0.000671
6.472	-0.000671
6.473	-0.000671
6.474	0
6.475	0.000671
6.476	0.001342
6.477	0.002013
6.478	0.004026
6.479	0.005368
6.48	0.00671
6.481	0.010065
6.482	0.012749
6.483	0.016104
6.484	0.018788
6.485	0.022143
6.486	0.024827
6.487	0.028182
6.488	0.030195
6.489	0.032208
6.49	0.034892
6.491	0.036234
6.492	0.036905
6.493	0.037576
6.494	0.038247
6.495	0.038247
6.496	0.038247
6.497	0.038247
6.498	0.037576
6.499	0.036905
6.5	0.036234
6.501	0.035563
6.502	0.035563
6.503	0.035563
6.504	0.035563
6.505	0.035563
6.506	0.035563
6.507	0.035563
6.508	0.035563
6.509	0.036905
6.51	0.037576
6.511	0.038247
6.512	0.038247
6.513	0.038247
6.514	0.038247
6.515	0.038247
6.516	0.038247
6.517	0.038247
6.518	0.038247
6.519	0.038247
6.52	0.038247
6.521	0.038247
6.522	0.038918
6.523	0.039589
6.524	0.04026
6.525	0.040931
6.526	0.041602
6.527	0.042273
6.528	0.042944
6.529	0.043615
6.53	0.044957
6.531	0.045628
6.532	0.045628
6.533	0.045628
6.534	0.045628
6.535	0.045628
6.536	0.044957
6.537	0.044286
6.538	0.043615
6.539	0.042944
6.54	0.042273
6.541	0.041602
6.542	0.040931
6.543	0.040931
6.544	0.040931
6.545	0.040931
6.546	0.040931
6.547	0.040931
6.548	0.040931
6.549	0.040931
6.55	0.040931
6.551	0.040931
6.552	0.040931
6.553	0.040931
6.554	0.042273
6.555	0.042944
6.556	0.043615
6.557	0.044957
6.558	0.04697
6.559	0.048312
6.56	0.050325
6.561	0.053009
6.562	0.055022
6.563	0.057035
6.564	0.058377
6.565	0.059719
6.566	0.061061
6.567	0.06039
6.568	0.059719
6.569	0.059048
6.57	0.054351
6.571	0.047641
6.572	0.040931
6.573	0.03355
6.574	0.02013
6.575	0.007381
6.576	-0.005368
6.577	-0.022143
6.578	-0.04026
6.579	-0.058377
6.58	-0.077165
6.581	-0.098637
6.582	-0.119438
6.583	-0.14091
6.584	-0.159698
6.585	-0.178486
6.586	-0.196603
6.587	-0.212036
6.588	-0.222772
6.589	-0.233508
6.59	-0.243573
6.591	-0.242902
6.592	-0.242231
6.593	-0.24156
6.594	-0.233508
6.595	-0.219417
6.596	-0.204655
6.597	-0.188551
6.598	-0.163053
6.599	-0.137555
6.6	-0.112057
6.601	-0.084546
6.602	-0.057035
6.603	-0.028853
6.604	-0.002684
6.605	0.018117
6.606	0.039589
6.607	0.06039
6.608	0.071126
6.609	0.079178
6.61	0.087901
6.611	0.091256
6.612	0.088572
6.613	0.085217
6.614	0.082533
6.615	0.07381
6.616	0.065758
6.617	0.057706
6.618	0.050996
6.619	0.045628
6.62	0.04026
6.621	0.035563
6.622	0.034892
6.623	0.03355
6.624	0.032879
6.625	0.03355
6.626	0.035563
6.627	0.036905
6.628	0.038247
6.629	0.038918
6.63	0.039589
6.631	0.04026
6.632	0.039589
6.633	0.038247
6.634	0.036234
6.635	0.034892
6.636	0.032208
6.637	0.030195
6.638	0.028182
6.639	0.027511
6.64	0.027511
6.641	0.027511
6.642	0.028853
6.643	0.030866
6.644	0.032879
6.645	0.035563
6.646	0.037576
6.647	0.04026
6.648	0.042273
6.649	0.044286
6.65	0.045628
6.651	0.04697
6.652	0.048312
6.653	0.047641
6.654	0.04697
6.655	0.046299
6.656	0.044286
6.657	0.042273
6.658	0.039589
6.659	0.037576
6.66	0.034892
6.661	0.032879
6.662	0.030866
6.663	0.029524
6.664	0.028853
6.665	0.028182
6.666	0.028182
6.667	0.028853
6.668	0.029524
6.669	0.030195
6.67	0.030195
6.671	0.030195
6.672	0.030195
6.673	0.030195
6.674	0.030195
6.675	0.030195
6.676	0.030195
6.677	0.028853
6.678	0.02684
6.679	0.025498
6.68	0.024827
6.681	0.023485
6.682	0.022814
6.683	0.022143
6.684	0.022143
6.685	0.022143
6.686	0.022143
6.687	0.022143
6.688	0.020801
6.689	0.02013
6.69	0.018788
6.691	0.016104
6.692	0.012749
6.693	0.010065
6.694	0.006039
6.695	0.002013
6.696	-0.001342
6.697	-0.005368
6.698	-0.010065
6.699	-0.014762
6.7	-0.019459
6.701	-0.023485
6.702	-0.028182
6.703	-0.032879
6.704	-0.036234
6.705	-0.039589
6.706	-0.042273
6.707	-0.045628
6.708	-0.047641
6.709	-0.050325
6.71	-0.052338
6.711	-0.054351
6.712	-0.057035
6.713	-0.059048
6.714	-0.061061
6.715	-0.062403
6.716	-0.064416
6.717	-0.065758
6.718	-0.066429
6.719	-0.0671
6.72	-0.067771
6.721	-0.068442
6.722	-0.069784
6.723	-0.070455
6.724	-0.071126
6.725	-0.072468
6.726	-0.07381
6.727	-0.075823
6.728	-0.077836
6.729	-0.079849
6.73	-0.081862
6.731	-0.084546
6.732	-0.08723
6.733	-0.090585
6.734	-0.093269
6.735	-0.095953
6.736	-0.097966
6.737	-0.10065
6.738	-0.102663
6.739	-0.104005
6.74	-0.105347
6.741	-0.10736
6.742	-0.106689
6.743	-0.106018
6.744	-0.105347
6.745	-0.104676
6.746	-0.104676
6.747	-0.104676
6.748	-0.104676
6.749	-0.106018
6.75	-0.10736
6.751	-0.109373
6.752	-0.111386
6.753	-0.114741
6.754	-0.117425
6.755	-0.12078
6.756	-0.124135
6.757	-0.128161
6.758	-0.132187
6.759	-0.134871
6.76	-0.138226
6.761	-0.14091
6.762	-0.144265
6.763	-0.146278
6.764	-0.148291
6.765	-0.150975
6.766	-0.151646
6.767	-0.152317
6.768	-0.152988
6.769	-0.15433
6.77	-0.155001
6.771	-0.155672
6.772	-0.156343
6.773	-0.157014
6.774	-0.157685
6.775	-0.158356
6.776	-0.159027
6.777	-0.159698
6.778	-0.16104
6.779	-0.161711
6.78	-0.161711
6.781	-0.161711
6.782	-0.161711
6.783	-0.16104
6.784	-0.160369
6.785	-0.159698
6.786	-0.159027
6.787	-0.159027
6.788	-0.159027
6.789	-0.159027
6.79	-0.159027
6.791	-0.159027
6.792	-0.159027
6.793	-0.159027
6.794	-0.159698
6.795	-0.160369
6.796	-0.16104
6.797	-0.161711
6.798	-0.161711
6.799	-0.161711
6.8	-0.16104
6.801	-0.159027
6.802	-0.157685
6.803	-0.156343
6.804	-0.153659
6.805	-0.151646
6.806	-0.149633
6.807	-0.146278
6.808	-0.142923
6.809	-0.138897
6.81	-0.135542
6.811	-0.132187
6.812	-0.129503
6.813	-0.126148
6.814	-0.123464
6.815	-0.120109
6.816	-0.117425
6.817	-0.11407
6.818	-0.112057
6.819	-0.110044
6.82	-0.10736
6.821	-0.104676
6.822	-0.101992
6.823	-0.098637
6.824	-0.095953
6.825	-0.092598
6.826	-0.089914
6.827	-0.086559
6.828	-0.083875
6.829	-0.08052
6.83	-0.077836
6.831	-0.075152
6.832	-0.07381
6.833	-0.072468
6.834	-0.071126
6.835	-0.069113
6.836	-0.067771
6.837	-0.066429
6.838	-0.065087
6.839	-0.063074
6.84	-0.061732
6.841	-0.06039
6.842	-0.059719
6.843	-0.059048
6.844	-0.058377
6.845	-0.057035
6.846	-0.055022
6.847	-0.05368
6.848	-0.052338
6.849	-0.051667
6.85	-0.050996
6.851	-0.050325
6.852	-0.050325
6.853	-0.050325
6.854	-0.050325
6.855	-0.049654
6.856	-0.048983
6.857	-0.048312
6.858	-0.047641
6.859	-0.04697
6.86	-0.046299
6.861	-0.045628
6.862	-0.044286
6.863	-0.042944
6.864	-0.040931
6.865	-0.039589
6.866	-0.036905
6.867	-0.034892
6.868	-0.032879
6.869	-0.030866
6.87	-0.029524
6.871	-0.028182
6.872	-0.02684
6.873	-0.02684
6.874	-0.02684
6.875	-0.02684
6.876	-0.028182
6.877	-0.029524
6.878	-0.031537
6.879	-0.032879
6.88	-0.034221
6.881	-0.035563
6.882	-0.037576
6.883	-0.037576
6.884	-0.037576
6.885	-0.037576
6.886	-0.036234
6.887	-0.034892
6.888	-0.03355
6.889	-0.031537
6.89	-0.030195
6.891	-0.028853
6.892	-0.027511
6.893	-0.026169
6.894	-0.025498
6.895	-0.024827
6.896	-0.024156
6.897	-0.024156
6.898	-0.024156
6.899	-0.024156
6.9	-0.024827
6.901	-0.025498
6.902	-0.026169
6.903	-0.02684
6.904	-0.02684
6.905	-0.02684
6.906	-0.02684
6.907	-0.02684
6.908	-0.02684
6.909	-0.02684
6.91	-0.026169
6.911	-0.025498
6.912	-0.024827
6.913	-0.024156
6.914	-0.024156
6.915	-0.024156
6.916	-0.024156
6.917	-0.024156
6.918	-0.024156
6.919	-0.024156
6.92	-0.024156
6.921	-0.024156
6.922	-0.024156
6.923	-0.024156
6.924	-0.023485
6.925	-0.022814
6.926	-0.022143
6.927	-0.021472
6.928	-0.021472
6.929	-0.021472
6.93	-0.021472
6.931	-0.020801
6.932	-0.02013
6.933	-0.019459
6.934	-0.018788
6.935	-0.018788
6.936	-0.018788
6.937	-0.018788
6.938	-0.018788
6.939	-0.018788
6.94	-0.018788
6.941	-0.018788
6.942	-0.018117
6.943	-0.017446
6.944	-0.016775
6.945	-0.016775
6.946	-0.016775
6.947	-0.016775
6.948	-0.016104
6.949	-0.015433
6.95	-0.014091
6.951	-0.014091
6.952	-0.014091
6.953	-0.014091
6.954	-0.014091
6.955	-0.014091
6.956	-0.014091
6.957	-0.014091
6.958	-0.014091
6.959	-0.014091
6.96	-0.014091
6.961	-0.014091
6.962	-0.01342
6.963	-0.012078
6.964	-0.011407
6.965	-0.010736
6.966	-0.010065
6.967	-0.009394
6.968	-0.008723
6.969	-0.00671
6.97	-0.005368
6.971	-0.004026
6.972	-0.002684
6.973	-0.002013
6.974	-0.001342
6.975	-0.001342
6.976	-0.002013
6.977	-0.002684
6.978	-0.003355
6.979	-0.003355
6.98	-0.003355
6.981	-0.003355
6.982	-0.004026
6.983	-0.004697
6.984	-0.005368
6.985	-0.006039
6.986	-0.006039
6.987	-0.006039
6.988	-0.006039
6.989	-0.005368
6.99	-0.004026
6.991	-0.002684
6.992	-0.000671
6.993	0.000671
6.994	0.002013
6.995	0.004026
6.996	0.005368
6.997	0.00671
6.998	0.008052
6.999	0.009394
7	0.010065
7.001	0.011407
7.002	0.012078
7.003	0.012078
7.004	0.012078
7.005	0.012078
7.006	0.012078
7.007	0.010736
7.008	0.010065
7.009	0.009394
7.01	0.009394
7.011	0.009394
7.012	0.009394
7.013	0.009394
7.014	0.009394
7.015	0.009394
7.016	0.009394
7.017	0.010065
7.018	0.010736
7.019	0.012078
7.02	0.012749
7.021	0.01342
7.022	0.014091
7.023	0.014762
7.024	0.015433
7.025	0.016104
7.026	0.016775
7.027	0.017446
7.028	0.017446
7.029	0.017446
7.03	0.017446
7.031	0.017446
7.032	0.017446
7.033	0.017446
7.034	0.016775
7.035	0.016104
7.036	0.014762
7.037	0.014762
7.038	0.014762
7.039	0.014762
7.04	0.014762
7.041	0.014762
7.042	0.014762
7.043	0.014762
7.044	0.014762
7.045	0.016104
7.046	0.016775
7.047	0.017446
7.048	0.018117
7.049	0.018788
7.05	0.019459
7.051	0.02013
7.052	0.020801
7.053	0.022143
7.054	0.022814
7.055	0.024156
7.056	0.026169
7.057	0.027511
7.058	0.028853
7.059	0.030195
7.06	0.032208
7.061	0.032879
7.062	0.032879
7.063	0.032879
7.064	0.032879
7.065	0.031537
7.066	0.030195
7.067	0.028182
7.068	0.02684
7.069	0.025498
7.07	0.024156
7.071	0.022143
7.072	0.021472
7.073	0.020801
7.074	0.02013
7.075	0.02013
7.076	0.020801
7.077	0.022143
7.078	0.022814
7.079	0.026169
7.08	0.028853
7.081	0.032208
7.082	0.034892
7.083	0.036905
7.084	0.038918
7.085	0.040931
7.086	0.042944
7.087	0.044286
7.088	0.045628
7.089	0.044286
7.09	0.042944
7.091	0.041602
7.092	0.039589
7.093	0.037576
7.094	0.034892
7.095	0.032879
7.096	0.032208
7.097	0.031537
7.098	0.030866
7.099	0.030195
7.1	0.030195
7.101	0.030195
7.102	0.030195
7.103	0.032208
7.104	0.03355
7.105	0.034892
7.106	0.036234
7.107	0.038247
7.108	0.039589
7.109	0.040931
7.11	0.042273
7.111	0.044286
7.112	0.045628
7.113	0.046299
7.114	0.04697
7.115	0.047641
7.116	0.048983
7.117	0.049654
7.118	0.050325
7.119	0.050996
7.12	0.050996
7.121	0.050996
7.122	0.050996
7.123	0.050996
7.124	0.050996
7.125	0.050996
7.126	0.050996
7.127	0.050325
7.128	0.049654
7.129	0.048983
7.13	0.047641
7.131	0.046299
7.132	0.044286
7.133	0.042944
7.134	0.042273
7.135	0.041602
7.136	0.040931
7.137	0.040931
7.138	0.042273
7.139	0.042944
7.14	0.042944
7.141	0.042944
7.142	0.042944
7.143	0.042944
7.144	0.042944
7.145	0.042944
7.146	0.042944
7.147	0.042944
7.148	0.042273
7.149	0.041602
7.15	0.040931
7.151	0.038918
7.152	0.037576
7.153	0.036234
7.154	0.034892
7.155	0.032879
7.156	0.031537
7.157	0.030195
7.158	0.029524
7.159	0.028853
7.16	0.028182
7.161	0.028853
7.162	0.030195
7.163	0.031537
7.164	0.032879
7.165	0.034892
7.166	0.036234
7.167	0.037576
7.168	0.038918
7.169	0.040931
7.17	0.042273
7.171	0.042944
7.172	0.042273
7.173	0.041602
7.174	0.040931
7.175	0.038918
7.176	0.037576
7.177	0.036234
7.178	0.03355
7.179	0.029524
7.18	0.026169
7.181	0.022143
7.182	0.02013
7.183	0.017446
7.184	0.015433
7.185	0.01342
7.186	0.012078
7.187	0.010736
7.188	0.009394
7.189	0.010065
7.19	0.011407
7.191	0.012078
7.192	0.01342
7.193	0.014762
7.194	0.016104
7.195	0.018117
7.196	0.02013
7.197	0.022814
7.198	0.024827
7.199	0.026169
7.2	0.028182
7.201	0.029524
7.202	0.030195
7.203	0.030195
7.204	0.030195
7.205	0.030195
7.206	0.030866
7.207	0.031537
7.208	0.032208
7.209	0.03355
7.21	0.034221
7.211	0.034892
7.212	0.035563
7.213	0.036905
7.214	0.038918
7.215	0.04026
7.216	0.042944
7.217	0.045628
7.218	0.048983
7.219	0.051667
7.22	0.05368
7.221	0.056364
7.222	0.058377
7.223	0.059719
7.224	0.06039
7.225	0.061061
7.226	0.061732
7.227	0.062403
7.228	0.063074
7.229	0.063745
7.23	0.063745
7.231	0.063745
7.232	0.063745
7.233	0.063745
7.234	0.063745
7.235	0.063745
7.236	0.063745
7.237	0.063074
7.238	0.062403
7.239	0.061732
7.24	0.061061
7.241	0.06039
7.242	0.059719
7.243	0.059048
7.244	0.059048
7.245	0.059048
7.246	0.059048
7.247	0.059719
7.248	0.06039
7.249	0.061061
7.25	0.061732
7.251	0.063745
7.252	0.065087
7.253	0.066429
7.254	0.068442
7.255	0.071126
7.256	0.073139
7.257	0.074481
7.258	0.074481
7.259	0.074481
7.26	0.074481
7.261	0.074481
7.262	0.074481
7.263	0.074481
7.264	0.073139
7.265	0.071797
7.266	0.070455
7.267	0.069113
7.268	0.0671
7.269	0.065758
7.27	0.064416
7.271	0.063745
7.272	0.063745
7.273	0.063745
7.274	0.064416
7.275	0.065087
7.276	0.065758
7.277	0.066429
7.278	0.067771
7.279	0.069113
7.28	0.071126
7.281	0.071797
7.282	0.073139
7.283	0.07381
7.284	0.074481
7.285	0.075823
7.286	0.077165
7.287	0.079178
7.288	0.079849
7.289	0.08052
7.29	0.081191
7.291	0.081862
7.292	0.081862
7.293	0.081862
7.294	0.081862
7.295	0.08052
7.296	0.078507
7.297	0.075823
7.298	0.072468
7.299	0.065758
7.3	0.059048
7.301	0.052338
7.302	0.039589
7.303	0.026169
7.304	0.012749
7.305	-0.004026
7.306	-0.025498
7.307	-0.046299
7.308	-0.067771
7.309	-0.091927
7.31	-0.116083
7.311	-0.139568
7.312	-0.161711
7.313	-0.181841
7.314	-0.201971
7.315	-0.220088
7.316	-0.227469
7.317	-0.234179
7.318	-0.24156
7.319	-0.238205
7.32	-0.229482
7.321	-0.220759
7.322	-0.209352
7.323	-0.186538
7.324	-0.163724
7.325	-0.140239
7.326	-0.112057
7.327	-0.083204
7.328	-0.05368
7.329	-0.025498
7.33	0
7.331	0.025498
7.332	0.051667
7.333	0.0671
7.334	0.081191
7.335	0.095282
7.336	0.104676
7.337	0.10736
7.338	0.110044
7.339	0.112728
7.34	0.109373
7.341	0.105347
7.342	0.10065
7.343	0.095953
7.344	0.090585
7.345	0.085888
7.346	0.08052
7.347	0.076494
7.348	0.072468
7.349	0.068442
7.35	0.065758
7.351	0.064416
7.352	0.063074
7.353	0.061732
7.354	0.06039
7.355	0.059719
7.356	0.059048
7.357	0.058377
7.358	0.057706
7.359	0.057035
7.36	0.056364
7.361	0.056364
7.362	0.056364
7.363	0.056364
7.364	0.056364
7.365	0.056364
7.366	0.056364
7.367	0.056364
7.368	0.057035
7.369	0.057706
7.37	0.058377
7.371	0.059719
7.372	0.06039
7.373	0.061061
7.374	0.061732
7.375	0.061732
7.376	0.061732
7.377	0.061732
7.378	0.059048
7.379	0.057035
7.38	0.055022
7.381	0.052338
7.382	0.050325
7.383	0.047641
7.384	0.045628
7.385	0.044286
7.386	0.042944
7.387	0.040931
7.388	0.04026
7.389	0.039589
7.39	0.038918
7.391	0.038247
7.392	0.038918
7.393	0.039589
7.394	0.04026
7.395	0.041602
7.396	0.043615
7.397	0.044957
7.398	0.046299
7.399	0.04697
7.4	0.047641
7.401	0.048312
7.402	0.04697
7.403	0.045628
7.404	0.044286
7.405	0.042273
7.406	0.040931
7.407	0.039589
7.408	0.038247
7.409	0.035563
7.41	0.03355
7.411	0.030866
7.412	0.029524
7.413	0.028853
7.414	0.028182
7.415	0.027511
7.416	0.028853
7.417	0.029524
7.418	0.030195
7.419	0.031537
7.42	0.032879
7.421	0.034221
7.422	0.035563
7.423	0.037576
7.424	0.038918
7.425	0.04026
7.426	0.040931
7.427	0.040931
7.428	0.040931
7.429	0.04026
7.43	0.039589
7.431	0.038918
7.432	0.038247
7.433	0.036905
7.434	0.034892
7.435	0.03355
7.436	0.032208
7.437	0.031537
7.438	0.030866
7.439	0.030195
7.44	0.030195
7.441	0.030195
7.442	0.030195
7.443	0.029524
7.444	0.028853
7.445	0.028182
7.446	0.027511
7.447	0.02684
7.448	0.026169
7.449	0.025498
7.45	0.023485
7.451	0.020801
7.452	0.018788
7.453	0.016775
7.454	0.015433
7.455	0.01342
7.456	0.012078
7.457	0.011407
7.458	0.010736
7.459	0.010065
7.46	0.009394
7.461	0.008052
7.462	0.007381
7.463	0.00671
7.464	0.005368
7.465	0.004026
7.466	0.002013
7.467	0.000671
7.468	-0.000671
7.469	-0.002013
7.47	-0.004026
7.471	-0.005368
7.472	-0.00671
7.473	-0.008052
7.474	-0.010065
7.475	-0.011407
7.476	-0.012749
7.477	-0.014091
7.478	-0.014762
7.479	-0.015433
7.48	-0.016104
7.481	-0.018117
7.482	-0.019459
7.483	-0.020801
7.484	-0.022814
7.485	-0.024827
7.486	-0.027511
7.487	-0.029524
7.488	-0.034221
7.489	-0.038247
7.49	-0.042944
7.491	-0.04697
7.492	-0.049654
7.493	-0.053009
7.494	-0.055693
7.495	-0.057706
7.496	-0.06039
7.497	-0.062403
7.498	-0.063074
7.499	-0.063074
7.5	-0.063074
7.501	-0.063074
7.502	-0.062403
7.503	-0.061732
7.504	-0.061061
7.505	-0.06039
7.506	-0.06039
7.507	-0.06039
7.508	-0.061061
7.509	-0.062403
7.51	-0.064416
7.511	-0.065758
7.512	-0.0671
7.513	-0.068442
7.514	-0.070455
7.515	-0.070455
7.516	-0.069784
7.517	-0.069113
7.518	-0.068442
7.519	-0.0671
7.52	-0.065087
7.521	-0.063745
7.522	-0.062403
7.523	-0.061061
7.524	-0.059048
7.525	-0.057706
7.526	-0.057035
7.527	-0.056364
7.528	-0.055693
7.529	-0.055693
7.53	-0.055693
7.531	-0.055693
7.532	-0.055022
7.533	-0.054351
7.534	-0.05368
7.535	-0.053009
7.536	-0.050325
7.537	-0.04697
7.538	-0.044286
7.539	-0.040931
7.54	-0.036234
7.541	-0.031537
7.542	-0.02684
7.543	-0.022143
7.544	-0.018117
7.545	-0.01342
7.546	-0.009394
7.547	-0.00671
7.548	-0.003355
7.549	-0.000671
7.55	0.001342
7.551	0.004026
7.552	0.006039
7.553	0.008052
7.554	0.009394
7.555	0.010736
7.556	0.012749
7.557	0.014091
7.558	0.015433
7.559	0.016775
7.56	0.019459
7.561	0.021472
7.562	0.023485
7.563	0.025498
7.564	0.02684
7.565	0.028853
7.566	0.030195
7.567	0.032208
7.568	0.034892
7.569	0.036905
7.57	0.038918
7.571	0.041602
7.572	0.043615
7.573	0.045628
7.574	0.047641
7.575	0.048983
7.576	0.050325
7.577	0.051667
7.578	0.052338
7.579	0.053009
7.58	0.05368
7.581	0.05368
7.582	0.05368
7.583	0.05368
7.584	0.053009
7.585	0.052338
7.586	0.051667
7.587	0.050996
7.588	0.050996
7.589	0.050996
7.59	0.050996
7.591	0.051667
7.592	0.052338
7.593	0.053009
7.594	0.054351
7.595	0.055693
7.596	0.057035
7.597	0.059048
7.598	0.059719
7.599	0.06039
7.6	0.061061
7.601	0.061732
7.602	0.061732
7.603	0.061732
7.604	0.061061
7.605	0.06039
7.606	0.059719
7.607	0.059048
7.608	0.057035
7.609	0.055022
7.61	0.053009
7.611	0.050996
7.612	0.050325
7.613	0.049654
7.614	0.048312
7.615	0.048983
7.616	0.049654
7.617	0.050325
7.618	0.050996
7.619	0.052338
7.62	0.053009
7.621	0.05368
7.622	0.055022
7.623	0.056364
7.624	0.058377
7.625	0.058377
7.626	0.057706
7.627	0.057035
7.628	0.056364
7.629	0.054351
7.63	0.053009
7.631	0.051667
7.632	0.049654
7.633	0.047641
7.634	0.044957
7.635	0.042944
7.636	0.042273
7.637	0.041602
7.638	0.040931
7.639	0.040931
7.64	0.042273
7.641	0.042944
7.642	0.043615
7.643	0.046299
7.644	0.048312
7.645	0.050996
7.646	0.053009
7.647	0.055022
7.648	0.057706
7.649	0.059048
7.65	0.059719
7.651	0.06039
7.652	0.061061
7.653	0.06039
7.654	0.059719
7.655	0.059048
7.656	0.057706
7.657	0.055022
7.658	0.053009
7.659	0.050996
7.66	0.048312
7.661	0.046299
7.662	0.043615
7.663	0.042944
7.664	0.042273
7.665	0.040931
7.666	0.040931
7.667	0.041602
7.668	0.042273
7.669	0.042944
7.67	0.042944
7.671	0.042944
7.672	0.042944
7.673	0.043615
7.674	0.044286
7.675	0.044957
7.676	0.045628
7.677	0.046299
7.678	0.047641
7.679	0.048312
7.68	0.048312
7.681	0.048312
7.682	0.048312
7.683	0.048312
7.684	0.048312
7.685	0.048312
7.686	0.048312
7.687	0.048312
7.688	0.048312
7.689	0.048312
7.69	0.048312
7.691	0.047641
7.692	0.04697
7.693	0.045628
7.694	0.044286
7.695	0.042944
7.696	0.041602
7.697	0.04026
7.698	0.039589
7.699	0.038918
7.7	0.038247
7.701	0.037576
7.702	0.036234
7.703	0.035563
7.704	0.035563
7.705	0.035563
7.706	0.035563
7.707	0.035563
7.708	0.035563
7.709	0.035563
7.71	0.035563
7.711	0.035563
7.712	0.035563
7.713	0.035563
7.714	0.035563
7.715	0.034221
7.716	0.03355
7.717	0.032879
7.718	0.032879
7.719	0.032879
7.72	0.032879
7.721	0.032879
7.722	0.03355
7.723	0.034892
7.724	0.035563
7.725	0.036234
7.726	0.036905
7.727	0.037576
7.728	0.038247
7.729	0.038918
7.73	0.039589
7.731	0.040931
7.732	0.041602
7.733	0.042273
7.734	0.042944
7.735	0.043615
7.736	0.044286
7.737	0.044957
7.738	0.046299
7.739	0.047641
7.74	0.048983
7.741	0.050325
7.742	0.051667
7.743	0.052338
7.744	0.053009
7.745	0.05368
7.746	0.05368
7.747	0.05368
7.748	0.05368
7.749	0.053009
7.75	0.052338
7.751	0.051667
7.752	0.050996
7.753	0.049654
7.754	0.048983
7.755	0.048312
7.756	0.048312
7.757	0.048312
7.758	0.048312
7.759	0.048312
7.76	0.04697
7.761	0.046299
7.762	0.045628
7.763	0.045628
7.764	0.045628
7.765	0.045628
7.766	0.045628
7.767	0.044286
7.768	0.043615
7.769	0.042944
7.77	0.042273
7.771	0.041602
7.772	0.040931
7.773	0.040931
7.774	0.040931
7.775	0.040931
7.776	0.040931
7.777	0.041602
7.778	0.042273
7.779	0.042944
7.78	0.044286
7.781	0.046299
7.782	0.047641
7.783	0.048312
7.784	0.048312
7.785	0.048312
7.786	0.048312
7.787	0.048312
7.788	0.048312
7.789	0.048312
7.79	0.048312
7.791	0.048312
7.792	0.048312
7.793	0.048312
7.794	0.047641
7.795	0.04697
7.796	0.046299
7.797	0.044957
7.798	0.044286
7.799	0.043615
7.8	0.042944
7.801	0.042944
7.802	0.042944
7.803	0.042944
7.804	0.042944
7.805	0.042944
7.806	0.042944
7.807	0.043615
7.808	0.044286
7.809	0.044957
7.81	0.045628
7.811	0.045628
7.812	0.045628
7.813	0.045628
7.814	0.045628
7.815	0.045628
7.816	0.045628
7.817	0.045628
7.818	0.044957
7.819	0.044286
7.82	0.043615
7.821	0.042944
7.822	0.042944
7.823	0.042944
7.824	0.042944
7.825	0.042944
7.826	0.042944
7.827	0.042944
7.828	0.043615
7.829	0.044286
7.83	0.045628
7.831	0.045628
7.832	0.045628
7.833	0.045628
7.834	0.045628
7.835	0.045628
7.836	0.045628
7.837	0.045628
7.838	0.045628
7.839	0.045628
7.84	0.045628
7.841	0.045628
7.842	0.045628
7.843	0.045628
7.844	0.045628
7.845	0.045628
7.846	0.045628
7.847	0.045628
7.848	0.045628
7.849	0.04697
7.85	0.047641
7.851	0.048312
7.852	0.048312
7.853	0.048312
7.854	0.048312
7.855	0.048312
7.856	0.048312
7.857	0.048312
7.858	0.048312
7.859	0.047641
7.86	0.04697
7.861	0.046299
7.862	0.044957
7.863	0.043615
7.864	0.042273
7.865	0.040931
7.866	0.039589
7.867	0.038918
7.868	0.038247
7.869	0.037576
7.87	0.035563
7.871	0.034221
7.872	0.032879
7.873	0.032208
7.874	0.031537
7.875	0.030195
7.876	0.030195
7.877	0.030195
7.878	0.030195
7.879	0.030195
7.88	0.029524
7.881	0.028853
7.882	0.027511
7.883	0.027511
7.884	0.027511
7.885	0.027511
7.886	0.027511
7.887	0.02684
7.888	0.026169
7.889	0.024827
7.89	0.023485
7.891	0.022143
7.892	0.020801
7.893	0.018788
7.894	0.016775
7.895	0.014091
7.896	0.012078
7.897	0.010065
7.898	0.007381
7.899	0.005368
7.9	0.003355
7.901	0.002013
7.902	0.000671
7.903	-0.001342
7.904	-0.002013
7.905	-0.002684
7.906	-0.003355
7.907	-0.002684
7.908	-0.000671
7.909	0.000671
7.91	0.002013
7.911	0.004697
7.912	0.00671
7.913	0.009394
7.914	0.012078
7.915	0.014762
7.916	0.018117
7.917	0.020801
7.918	0.022814
7.919	0.025498
7.92	0.027511
7.921	0.028182
7.922	0.028853
7.923	0.030195
7.924	0.030195
7.925	0.030195
7.926	0.030195
7.927	0.030195
7.928	0.030195
7.929	0.030195
7.93	0.030195
7.931	0.031537
7.932	0.032879
7.933	0.034221
7.934	0.035563
7.935	0.037576
7.936	0.038918
7.937	0.04026
7.938	0.042273
7.939	0.044957
7.94	0.04697
7.941	0.048312
7.942	0.048312
7.943	0.048312
