0.000	-0.085
0.002	-0.080
0.004	-0.070
0.006	-0.075
0.008	-0.095
0.010	-0.090
0.012	-0.100
0.014	-0.100
0.016	-0.100
0.018	-0.085
0.020	-0.060
0.022	-0.045
0.024	-0.055
0.026	-0.060
0.028	-0.070
0.030	-0.080
0.032	-0.085
0.034	-0.080
0.036	-0.070
0.038	-0.040
0.040	-0.050
0.042	-0.045
0.044	-0.040
0.046	-0.040
0.048	-0.055
0.050	-0.060
0.052	-0.055
0.054	-0.055
0.056	-0.055
0.058	-0.045
0.060	-0.040
0.062	-0.045
0.064	-0.040
0.066	-0.030
0.068	-0.035
0.070	-0.045
0.072	-0.055
0.074	-0.055
0.076	-0.050
0.078	-0.020
0.080	-0.015
0.082	-0.010
0.084	0.005
0.086	0.000
0.088	-0.005
0.090	-0.025
0.092	-0.035
0.094	-0.030
0.096	-0.030
0.098	-0.015
0.100	-0.005
0.102	0.000
0.104	0.010
0.106	0.020
0.108	0.000
0.110	-0.005
0.112	0.005
0.114	0.005
0.116	0.010
0.118	0.025
0.120	0.040
0.122	0.055
0.124	0.060
0.126	0.045
0.128	0.040
0.130	0.045
0.132	0.040
0.134	0.040
0.136	0.070
0.138	0.075
0.140	0.090
0.142	0.105
0.144	0.105
0.146	0.115
0.148	0.105
0.150	0.100
0.152	0.100
0.154	0.095
0.156	0.125
0.158	0.155
0.160	0.160
0.162	0.160
0.164	0.175
0.166	0.175
0.168	0.155
0.170	0.160
0.172	0.150
0.174	0.150
0.176	0.160
0.178	0.180
0.180	0.190
0.182	0.190
0.184	0.200
0.186	0.190
0.188	0.180
0.190	0.175
0.192	0.165
0.194	0.160
0.196	0.165
0.198	0.155
0.200	0.165
0.202	0.165
0.204	0.170
0.206	0.145
0.208	0.135
0.210	0.110
0.212	0.090
0.214	0.070
0.216	0.075
0.218	0.085
0.220	0.085
0.222	0.070
0.224	0.070
0.226	0.050
0.228	0.040
0.230	0.025
0.232	0.005
0.234	-0.005
0.236	0.000
0.238	0.000
0.240	0.005
0.242	0.010
0.244	0.000
0.246	0.010
0.248	0.015
0.250	0.030
0.252	0.035
0.254	0.045
0.256	0.065
0.258	0.085
0.260	0.090
0.262	0.120
0.264	0.115
0.266	0.090
0.268	0.085
0.270	0.070
0.272	0.080
0.274	0.080
0.276	0.090
0.278	0.095
0.280	0.110
0.282	0.115
0.284	0.130
0.286	0.115
0.288	0.100
0.290	0.095
0.292	0.095
0.294	0.095
0.296	0.100
0.298	0.110
0.300	0.120
0.302	0.125
0.304	0.140
0.306	0.135
0.308	0.115
0.310	0.115
0.312	0.115
0.314	0.115
0.316	0.125
0.318	0.130
0.320	0.125
0.322	0.140
0.324	0.140
0.326	0.140
0.328	0.130
0.330	0.105
0.332	0.100
0.334	0.100
0.336	0.130
0.338	0.140
0.340	0.135
0.342	0.150
0.344	0.145
0.346	0.130
0.348	0.125
0.350	0.125
0.352	0.115
0.354	0.120
0.356	0.125
0.358	0.140
0.360	0.140
0.362	0.150
0.364	0.145
0.366	0.140
0.368	0.135
0.370	0.140
0.372	0.125
0.374	0.125
0.376	0.135
0.378	0.145
0.380	0.145
0.382	0.140
0.384	0.135
0.386	0.120
0.388	0.120
0.390	0.110
0.392	0.115
0.394	0.120
0.396	0.135
0.398	0.135
0.400	0.130
0.402	0.135
0.404	0.130
0.406	0.110
0.408	0.110
0.410	0.110
0.412	0.105
0.414	0.115
0.416	0.125
0.418	0.130
0.420	0.115
0.422	0.120
0.424	0.115
0.426	0.105
0.428	0.100
0.430	0.105
0.432	0.090
0.434	0.100
0.436	0.105
0.438	0.110
0.440	0.120
0.442	0.135
0.444	0.120
0.446	0.110
0.448	0.095
0.450	0.100
0.452	0.095
0.454	0.100
0.456	0.110
0.458	0.110
0.460	0.115
0.462	0.115
0.464	0.095
0.466	0.080
0.468	0.075
0.470	0.070
0.472	0.070
0.474	0.075
0.476	0.090
0.478	0.085
0.480	0.100
0.482	0.125
0.484	0.110
0.486	0.105
0.488	0.075
0.490	0.080
0.492	0.065
0.494	0.075
0.496	0.080
0.498	0.090
0.500	0.100
0.502	0.115
0.504	0.105
0.506	0.090
0.508	0.085
0.510	0.090
0.512	0.085
0.514	0.095
0.516	0.110
0.518	0.135
0.520	0.130
0.522	0.135
0.524	0.125
0.526	0.120
0.528	0.110
0.530	0.105
0.532	0.095
0.534	0.110
0.536	0.140
0.538	0.135
0.540	0.140
0.542	0.140
0.544	0.130
0.546	0.125
0.548	0.120
0.550	0.105
0.552	0.100
0.554	0.120
0.556	0.150
0.558	0.160
0.560	0.160
0.562	0.170
0.564	0.160
0.566	0.120
0.568	0.115
0.570	0.115
0.572	0.095
0.574	0.095
0.576	0.100
0.578	0.095
0.580	0.090
0.582	0.090
0.584	0.085
0.586	0.055
0.588	0.065
0.590	0.060
0.592	0.065
0.594	0.075
0.596	0.080
0.598	0.080
0.600	0.095
0.602	0.075
0.604	0.055
0.606	0.050
0.608	0.045
0.610	0.035
0.612	0.045
0.614	0.045
0.616	0.055
0.618	0.060
0.620	0.060
0.622	0.060
0.624	0.060
0.626	0.050
0.628	0.035
0.630	0.020
0.632	0.025
0.634	0.035
0.636	0.045
0.638	0.055
0.640	0.060
0.642	0.055
0.644	0.035
0.646	0.025
0.648	0.030
0.650	0.020
0.652	0.030
0.654	0.050
0.656	0.030
0.658	0.040
0.660	0.050
0.662	0.040
0.664	0.025
0.666	0.000
0.668	-0.010
0.670	-0.025
0.672	-0.030
0.674	-0.025
0.676	-0.015
0.678	-0.005
0.680	0.030
0.682	0.065
0.684	0.110
0.686	0.160
0.688	0.200
0.690	0.255
0.692	0.335
0.694	0.425
0.696	0.530
0.698	0.645
0.700	0.720
0.702	0.735
0.704	0.685
0.706	0.630
0.708	0.570
0.710	0.485
0.712	0.410
0.714	0.335
0.716	0.230
0.718	0.100
0.720	0.010
0.722	-0.060
0.724	-0.100
0.726	-0.100
0.728	-0.090
0.730	-0.085
0.732	-0.060
0.734	-0.020
0.736	0.010
0.738	0.035
0.740	0.040
0.742	0.035
0.744	0.015
0.746	-0.005
0.748	-0.020
0.750	-0.025
0.752	-0.010
0.754	0.000
0.756	0.005
0.758	0.025
0.760	0.025
0.762	0.020
0.764	0.000
0.766	0.005
0.768	-0.015
0.770	-0.020
0.772	-0.010
0.774	-0.010
0.776	0.000
0.778	0.010
0.780	0.000
0.782	0.005
0.784	0.005
0.786	-0.005
0.788	0.000
0.790	-0.010
0.792	0.000
0.794	0.015
0.796	0.020
0.798	0.025
0.800	0.040
0.802	0.025
0.804	0.010
0.806	0.000
0.808	-0.005
0.810	-0.005
0.812	0.005
0.814	0.025
0.816	0.025
0.818	0.030
0.820	0.025
0.822	0.010
0.824	0.020
0.826	0.005
0.828	0.010
0.830	0.005
0.832	0.015
0.834	0.020
0.836	0.035
0.838	0.040
0.840	0.050
0.842	0.050
0.844	0.045
0.846	0.040
0.848	0.025
0.850	0.030
0.852	0.030
0.854	0.040
0.856	0.045
0.858	0.055
0.860	0.060
0.862	0.065
0.864	0.065
0.866	0.070
0.868	0.070
0.870	0.065
0.872	0.080
0.874	0.095
0.876	0.105
0.878	0.105
0.880	0.120
0.882	0.115
0.884	0.115
0.886	0.110
0.888	0.100
0.890	0.100
0.892	0.115
0.894	0.130
0.896	0.150
0.898	0.155
0.900	0.160
0.902	0.150
0.904	0.160
0.906	0.165
0.908	0.155
0.910	0.160
0.912	0.175
0.914	0.200
0.916	0.205
0.918	0.210
0.920	0.205
0.922	0.195
0.924	0.185
0.926	0.180
0.928	0.180
0.930	0.180
0.932	0.180
0.934	0.200
0.936	0.205
0.938	0.205
0.940	0.195
0.942	0.170
0.944	0.150
0.946	0.135
0.948	0.130
0.950	0.125
0.952	0.130
0.954	0.115
0.956	0.130
0.958	0.130
0.960	0.115
0.962	0.095
0.964	0.080
0.966	0.070
0.968	0.055
0.970	0.030
0.972	0.015
0.974	0.025
0.976	0.025
0.978	0.020
0.980	0.010
0.982	-0.005
0.984	-0.020
0.986	-0.025
0.988	-0.035
0.990	-0.030
0.992	-0.010
0.994	0.000
0.996	-0.010
0.998	-0.005
1.000	-0.010
1.002	-0.030
1.004	-0.040
1.006	-0.055
1.008	-0.065
1.010	-0.055
1.012	-0.040
1.014	-0.045
1.016	-0.025
1.018	-0.035
1.020	-0.030
1.022	-0.050
1.024	-0.055
1.026	-0.060
1.028	-0.060
1.030	-0.045
1.032	-0.045
1.034	-0.035
1.036	-0.020
1.038	-0.030
1.040	-0.030
1.042	-0.050
1.044	-0.055
1.046	-0.055
1.048	-0.060
1.050	-0.055
1.052	-0.050
1.054	-0.040
1.056	-0.055
1.058	-0.030
1.060	-0.055
1.062	-0.050
1.064	-0.050
1.066	-0.060
1.068	-0.060
1.070	-0.045
1.072	-0.040
1.074	-0.040
1.076	-0.040
1.078	-0.040
1.080	-0.050
1.082	-0.055
1.084	-0.055
1.086	-0.060
1.088	-0.055
1.090	-0.030
1.092	-0.030
1.094	-0.025
1.096	-0.020
1.098	-0.015
1.100	-0.025
1.102	-0.035
1.104	-0.045
1.106	-0.050
1.108	-0.055
1.110	-0.045
1.112	-0.040
1.114	-0.020
1.116	-0.015
1.118	-0.010
1.120	-0.015
1.122	-0.020
1.124	-0.030
1.126	-0.035
1.128	-0.040
1.130	-0.030
1.132	-0.030
1.134	-0.025
1.136	-0.015
1.138	-0.015
1.140	-0.025
1.142	-0.020
1.144	-0.035
1.146	-0.040
1.148	-0.045
1.150	-0.045
1.152	-0.030
1.154	-0.025
1.156	-0.005
1.158	-0.010
1.160	-0.030
1.162	-0.030
1.164	-0.035
1.166	-0.050
1.168	-0.060
1.170	-0.040
1.172	-0.040
1.174	-0.030
1.176	-0.020
1.178	-0.025
1.180	-0.040
1.182	-0.045
1.184	-0.020
1.186	-0.050
1.188	-0.055
1.190	-0.040
1.192	-0.030
1.194	-0.035
1.196	-0.015
1.198	-0.020
1.200	-0.040
1.202	-0.050
1.204	-0.055
1.206	-0.060
1.208	-0.060
1.210	-0.055
1.212	-0.040
1.214	-0.040
1.216	-0.035
1.218	-0.020
1.220	-0.035
1.222	-0.045
1.224	-0.050
1.226	-0.070
1.228	-0.070
1.230	-0.050
1.232	-0.045
1.234	-0.035
1.236	-0.035
1.238	-0.035
1.240	-0.045
1.242	-0.055
1.244	-0.050
1.246	-0.050
1.248	-0.040
1.250	-0.035
1.252	-0.025
1.254	-0.005
1.256	-0.010
1.258	-0.025
1.260	-0.040
1.262	-0.030
1.264	-0.035
1.266	-0.040
1.268	-0.040
1.270	-0.025
1.272	-0.015
1.274	-0.010
1.276	0.015
1.278	-0.005
1.280	-0.005
1.282	-0.015
1.284	-0.020
1.286	-0.025
1.288	-0.025
1.290	-0.010
1.292	0.005
1.294	0.015
1.296	0.020
1.298	0.015
1.300	0.005
1.302	0.005
1.304	0.000
1.306	0.000
1.308	0.000
1.310	0.000
1.312	0.005
1.314	0.020
1.316	0.030
1.318	0.020
1.320	-0.010
1.322	-0.025
1.324	-0.035
1.326	-0.055
1.328	-0.050
1.330	-0.045
1.332	-0.040
1.334	-0.045
1.336	-0.025
1.338	-0.035
1.340	-0.060
1.342	-0.060
1.344	-0.070
1.346	-0.080
1.348	-0.065
1.350	-0.055
1.352	-0.050
1.354	-0.050
1.356	-0.035
1.358	-0.055
1.360	-0.055
1.362	-0.060
1.364	-0.065
1.366	-0.065
1.368	-0.060
1.370	-0.065
1.372	-0.065
1.374	-0.065
1.376	-0.065
1.378	-0.065
1.380	-0.080
1.382	-0.085
1.384	-0.080
1.386	-0.100
1.388	-0.090
1.390	-0.080
1.392	-0.060
1.394	-0.045
1.396	-0.045
1.398	-0.055
1.400	-0.060
1.402	-0.085
1.404	-0.085
1.406	-0.100
1.408	-0.100
1.410	-0.080
1.412	-0.075
1.414	-0.070
1.416	-0.075
1.418	-0.095
1.420	-0.105
1.422	-0.115
1.424	-0.140
1.426	-0.155
1.428	-0.135
1.430	-0.105
1.432	-0.045
1.434	0.020
1.436	0.075
1.438	0.125
1.440	0.170
1.442	0.225
1.444	0.275
1.446	0.390
1.448	0.515
1.450	0.640
1.452	0.690
1.454	0.660
1.456	0.615
1.458	0.555
1.460	0.485
1.462	0.390
1.464	0.305
1.466	0.195
1.468	0.085
1.470	-0.030
1.472	-0.115
1.474	-0.155
1.476	-0.145
1.478	-0.125
1.480	-0.115
1.482	-0.110
1.484	-0.085
1.486	-0.050
1.488	-0.055
1.490	-0.030
1.492	-0.035
1.494	-0.045
1.496	-0.040
1.498	-0.040
1.500	-0.065
1.502	-0.070
1.504	-0.080
1.506	-0.075
1.508	-0.070
1.510	-0.060
1.512	-0.050
1.514	-0.030
1.516	-0.045
1.518	-0.045
1.520	-0.055
1.522	-0.060
1.524	-0.055
1.526	-0.060
1.528	-0.040
1.530	-0.035
1.532	-0.025
1.534	-0.010
1.536	-0.025
1.538	-0.045
1.540	-0.050
1.542	-0.055
1.544	-0.050
1.546	-0.055
1.548	-0.030
1.550	-0.025
1.552	-0.020
1.554	-0.010
1.556	-0.010
1.558	-0.020
1.560	-0.030
1.562	-0.025
1.564	-0.020
1.566	-0.015
1.568	0.005
1.570	0.020
1.572	0.025
1.574	0.025
1.576	0.015
1.578	0.005
1.580	-0.010
1.582	-0.010
1.584	-0.010
1.586	0.010
1.588	0.015
1.590	0.025
1.592	0.045
1.594	0.060
1.596	0.065
1.598	0.050
1.600	0.040
1.602	0.045
1.604	0.040
1.606	0.045
1.608	0.045
1.610	0.060
1.612	0.065
1.614	0.070
1.616	0.065
1.618	0.065
1.620	0.065
1.622	0.065
1.624	0.075
1.626	0.080
1.628	0.100
1.630	0.115
1.632	0.125
1.634	0.130
1.636	0.140
1.638	0.140
1.640	0.150
1.642	0.135
1.644	0.130
1.646	0.140
1.648	0.170
1.650	0.175
1.652	0.190
1.654	0.200
1.656	0.205
1.658	0.190
1.660	0.200
1.662	0.200
1.664	0.195
1.666	0.210
1.668	0.225
1.670	0.235
1.672	0.230
1.674	0.240
1.676	0.225
1.678	0.225
1.680	0.205
1.682	0.200
1.684	0.190
1.686	0.190
1.688	0.205
1.690	0.205
1.692	0.220
1.694	0.230
1.696	0.205
1.698	0.195
1.700	0.175
1.702	0.165
1.704	0.155
1.706	0.150
1.708	0.140
1.710	0.135
1.712	0.130
1.714	0.110
1.716	0.105
1.718	0.085
1.720	0.075
1.722	0.065
1.724	0.060
1.726	0.065
1.728	0.060
1.730	0.060
1.732	0.050
1.734	0.045
1.736	0.040
1.738	0.020
1.740	0.010
1.742	0.000
1.744	0.000
1.746	0.010
1.748	0.015
1.750	0.010
1.752	0.020
1.754	0.010
1.756	0.000
1.758	-0.020
1.760	-0.020
1.762	-0.040
1.764	-0.035
1.766	-0.025
1.768	-0.015
1.770	-0.005
1.772	0.005
1.774	-0.005
1.776	-0.020
1.778	-0.025
1.780	-0.025
1.782	-0.025
1.784	-0.025
1.786	-0.025
1.788	-0.010
1.790	0.005
1.792	0.015
1.794	0.010
1.796	0.005
1.798	-0.020
1.800	-0.015
1.802	-0.015
1.804	-0.020
1.806	-0.025
1.808	-0.020
1.810	-0.020
1.812	0.000
1.814	0.015
1.816	-0.005
1.818	-0.010
1.820	-0.020
1.822	-0.030
1.824	-0.030
1.826	-0.015
1.828	0.000
1.830	0.010
1.832	0.015
1.834	0.015
1.836	-0.005
1.838	-0.010
1.840	-0.035
1.842	-0.025
1.844	-0.025
1.846	-0.020
1.848	0.005
1.850	0.015
1.852	0.020
1.854	0.025
1.856	0.000
1.858	-0.010
1.860	-0.025
1.862	-0.035
1.864	-0.020
1.866	-0.010
1.868	0.005
1.870	0.005
1.872	0.010
1.874	0.015
1.876	0.000
1.878	-0.005
1.880	-0.020
1.882	-0.025
1.884	-0.025
1.886	-0.015
1.888	0.000
1.890	0.005
1.892	0.015
1.894	0.020
1.896	0.000
1.898	-0.015
1.900	-0.020
1.902	-0.030
1.904	-0.025
1.906	-0.005
1.908	-0.005
1.910	0.000
1.912	0.010
1.914	0.015
1.916	0.005
1.918	-0.010
1.920	-0.015
1.922	-0.020
1.924	-0.015
1.926	-0.005
1.928	-0.005
1.930	-0.005
1.932	-0.010
1.934	-0.010
1.936	-0.010
1.938	-0.015
1.940	-0.025
1.942	-0.025
1.944	-0.020
1.946	-0.010
1.948	-0.010
1.950	-0.005
1.952	-0.005
1.954	-0.010
1.956	-0.025
1.958	-0.025
1.960	-0.025
1.962	-0.035
1.964	-0.030
1.966	-0.020
1.968	-0.010
1.970	-0.005
1.972	-0.010
1.974	-0.015
1.976	-0.025
1.978	-0.030
1.980	-0.035
1.982	-0.040
1.984	-0.025
1.986	-0.020
1.988	-0.015
1.990	-0.005
1.992	0.000
1.994	-0.010
1.996	-0.025
1.998	-0.030
2.000	-0.045
2.002	-0.045
2.004	-0.045
2.006	-0.035
2.008	-0.040
2.010	-0.025
2.012	-0.010
2.014	-0.025
2.016	-0.040
2.018	-0.040
2.020	-0.030
2.022	-0.035
2.024	-0.040
2.026	-0.025
2.028	-0.020
2.030	-0.015
2.032	-0.005
2.034	-0.010
2.036	-0.025
2.038	-0.040
2.040	-0.045
2.042	-0.040
2.044	-0.020
2.046	-0.015
2.048	-0.010
2.050	0.000
2.052	-0.005
2.054	-0.010
2.056	-0.010
2.058	-0.015
2.060	0.000
2.062	0.010
2.064	0.025
2.066	0.065
2.068	0.070
2.070	0.085
2.072	0.100
2.074	0.100
2.076	0.090
2.078	0.090
2.080	0.095
2.082	0.085
2.084	0.100
2.086	0.105
2.088	0.110
2.090	0.120
2.092	0.125
2.094	0.130
2.096	0.145
2.098	0.155
2.100	0.145
2.102	0.135
2.104	0.150
2.106	0.165
2.108	0.180
2.110	0.185
2.112	0.175
2.114	0.170
2.116	0.165
2.118	0.175
2.120	0.170
2.122	0.160
2.124	0.170
2.126	0.170
2.128	0.170
2.130	0.165
2.132	0.160
2.134	0.150
2.136	0.135
2.138	0.115
2.140	0.115
2.142	0.105
2.144	0.110
2.146	0.120
2.148	0.125
2.150	0.130
2.152	0.140
2.154	0.125
2.156	0.125
2.158	0.120
2.160	0.110
2.162	0.095
2.164	0.095
2.166	0.095
2.168	0.105
2.170	0.115
2.172	0.120
2.174	0.105
2.176	0.095
2.178	0.080
2.180	0.075
2.182	0.075
2.184	0.090
2.186	0.110
2.188	0.115
2.190	0.120
2.192	0.125
2.194	0.095
2.196	0.080
2.198	0.070
2.200	0.060
2.202	0.085
2.204	0.100
2.206	0.100
2.208	0.105
2.210	0.115
2.212	0.105
2.214	0.095
2.216	0.085
2.218	0.075
2.220	0.070
2.222	0.080
2.224	0.075
2.226	0.080
2.228	0.090
2.230	0.080
2.232	0.090
2.234	0.055
2.236	0.045
2.238	0.020
2.240	0.020
2.242	0.040
2.244	0.070
2.246	0.115
2.248	0.175
2.250	0.235
2.252	0.280
2.254	0.325
2.256	0.385
2.258	0.445
2.260	0.555
2.262	0.680
2.264	0.820
2.266	0.890
2.268	0.860
2.270	0.840
2.272	0.775
2.274	0.695
2.276	0.595
2.278	0.505
2.280	0.395
2.282	0.265
2.284	0.155
2.286	0.050
2.288	0.010
2.290	0.035
2.292	0.040
2.294	0.040
2.296	0.055
2.298	0.060
2.300	0.075
2.302	0.095
2.304	0.120
2.306	0.130
2.308	0.125
2.310	0.130
2.312	0.120
2.314	0.105
2.316	0.090
2.318	0.085
2.320	0.090
2.322	0.105
2.324	0.110
2.326	0.110
2.328	0.120
2.330	0.130
2.332	0.125
2.334	0.110
2.336	0.090
2.338	0.075
2.340	0.080
2.342	0.095
2.344	0.115
2.346	0.115
2.348	0.115
2.350	0.140
2.352	0.110
2.354	0.100
2.356	0.095
2.358	0.085
2.360	0.100
2.362	0.120
2.364	0.130
2.366	0.135
2.368	0.140
2.370	0.145
2.372	0.130
2.374	0.115
2.376	0.110
2.378	0.105
2.380	0.110
2.382	0.130
2.384	0.140
2.386	0.150
2.388	0.155
2.390	0.165
2.392	0.135
2.394	0.115
2.396	0.110
2.398	0.115
2.400	0.110
2.402	0.130
2.404	0.135
2.406	0.140
2.408	0.155
2.410	0.165
2.412	0.160
2.414	0.150
2.416	0.145
2.418	0.145
2.420	0.135
2.422	0.140
2.424	0.165
2.426	0.170
2.428	0.175
2.430	0.170
2.432	0.170
2.434	0.165
2.436	0.175
2.438	0.160
2.440	0.165
2.442	0.180
2.444	0.210
2.446	0.215
2.448	0.225
2.450	0.225
2.452	0.215
2.454	0.210
2.456	0.220
2.458	0.200
2.460	0.225
2.462	0.250
2.464	0.255
2.466	0.260
2.468	0.270
2.470	0.270
2.472	0.270
2.474	0.265
2.476	0.265
2.478	0.250
2.480	0.265
2.482	0.265
2.484	0.280
2.486	0.295
2.488	0.295
2.490	0.290
2.492	0.290
2.494	0.285
2.496	0.280
2.498	0.260
2.500	0.260
2.502	0.255
2.504	0.260
2.506	0.260
2.508	0.270
2.510	0.260
2.512	0.235
2.514	0.220
2.516	0.190
2.518	0.170
2.520	0.170
2.522	0.150
2.524	0.155
2.526	0.160
2.528	0.150
2.530	0.130
2.532	0.120
2.534	0.095
2.536	0.095
2.538	0.075
2.540	0.080
2.542	0.075
2.544	0.075
2.546	0.065
2.548	0.065
2.550	0.035
2.552	0.030
2.554	0.020
2.556	0.015
2.558	-0.005
2.560	0.000
2.562	0.010
2.564	0.010
2.566	0.010
2.568	0.030
2.570	0.015
2.572	0.005
2.574	-0.010
2.576	-0.020
2.578	-0.030
2.580	-0.020
2.582	-0.015
2.584	-0.010
2.586	-0.005
2.588	0.010
2.590	-0.010
2.592	-0.005
2.594	-0.025
2.596	-0.055
2.598	-0.040
2.600	-0.035
2.602	-0.010
2.604	0.000
2.606	0.005
2.608	0.005
2.610	-0.005
2.612	-0.030
2.614	-0.035
2.616	-0.040
2.618	-0.030
2.620	-0.035
2.622	-0.030
2.624	-0.020
2.626	-0.015
2.628	-0.010
2.630	-0.025
2.632	-0.035
2.634	-0.055
2.636	-0.055
2.638	-0.050
2.640	-0.040
2.642	-0.025
2.644	-0.015
2.646	-0.020
2.648	-0.010
2.650	-0.025
2.652	-0.030
2.654	-0.035
2.656	-0.050
2.658	-0.055
2.660	-0.040
2.662	-0.040
2.664	-0.020
2.666	-0.015
2.668	-0.020
2.670	-0.030
2.672	-0.045
2.674	-0.050
2.676	-0.055
2.678	-0.055
2.680	-0.050
2.682	-0.020
2.684	-0.025
2.686	-0.025
2.688	-0.015
2.690	-0.035
2.692	-0.040
2.694	-0.040
2.696	-0.040
2.698	-0.040
2.700	-0.025
2.702	-0.035
2.704	-0.030
2.706	-0.025
2.708	-0.030
2.710	-0.045
2.712	-0.060
2.714	-0.060
2.716	-0.065
2.718	-0.060
2.720	-0.040
2.722	-0.030
2.724	-0.035
2.726	-0.030
2.728	-0.025
2.730	-0.045
2.732	-0.045
2.734	-0.065
2.736	-0.070
2.738	-0.065
2.740	-0.055
2.742	-0.050
2.744	-0.035
2.746	-0.030
2.748	-0.030
2.750	-0.045
2.752	-0.060
2.754	-0.065
2.756	-0.075
2.758	-0.070
2.760	-0.050
2.762	-0.050
2.764	-0.040
2.766	-0.030
2.768	-0.040
2.770	-0.045
2.772	-0.060
2.774	-0.060
2.776	-0.065
2.778	-0.075
2.780	-0.070
2.782	-0.060
2.784	-0.055
2.786	-0.045
2.788	-0.050
2.790	-0.055
2.792	-0.065
2.794	-0.065
2.796	-0.080
2.798	-0.065
2.800	-0.055
2.802	-0.040
2.804	-0.040
2.806	-0.030
2.808	-0.035
2.810	-0.050
2.812	-0.075
2.814	-0.075
2.816	-0.095
2.818	-0.090
2.820	-0.065
2.822	-0.055
2.824	-0.045
2.826	-0.045
2.828	-0.055
2.830	-0.070
2.832	-0.080
2.834	-0.075
2.836	-0.075
2.838	-0.065
2.840	-0.060
2.842	-0.055
2.844	-0.045
2.846	-0.040
2.848	-0.040
2.850	-0.055
2.852	-0.075
2.854	-0.075
2.856	-0.080
2.858	-0.065
2.860	-0.060
2.862	-0.055
2.864	-0.060
2.866	-0.045
2.868	-0.065
2.870	-0.075
2.872	-0.085
2.874	-0.090
2.876	-0.090
2.878	-0.075
2.880	-0.055
2.882	-0.030
2.884	-0.025
2.886	-0.045
2.888	-0.065
2.890	-0.075
2.892	-0.085
2.894	-0.090
2.896	-0.100
2.898	-0.085
2.900	-0.070
2.902	-0.060
2.904	-0.045
2.906	-0.040
2.908	-0.060
2.910	-0.070
2.912	-0.075
2.914	-0.085
2.916	-0.085
2.918	-0.070
2.920	-0.060
2.922	-0.060
2.924	-0.055
2.926	-0.050
2.928	-0.065
2.930	-0.075
2.932	-0.075
2.934	-0.080
2.936	-0.070
2.938	-0.060
2.940	-0.055
2.942	-0.055
2.944	-0.045
2.946	-0.040
2.948	-0.065
2.950	-0.080
2.952	-0.090
2.954	-0.070
2.956	-0.080
2.958	-0.070
2.960	-0.050
2.962	-0.045
2.964	-0.050
2.966	-0.045
2.968	-0.055
2.970	-0.070
2.972	-0.075
2.974	-0.070
2.976	-0.065
2.978	-0.060
2.980	-0.055
2.982	-0.055
2.984	-0.040
2.986	-0.045
2.988	-0.060
2.990	-0.055
2.992	-0.050
2.994	-0.065
2.996	-0.055
2.998	-0.040
3.000	-0.035
3.002	-0.015
3.004	-0.020
3.006	-0.030
3.008	-0.035
3.010	-0.050
3.012	-0.050
3.014	-0.050
3.016	-0.050
3.018	-0.040
3.020	-0.020
3.022	0.005
3.024	0.010
3.026	0.015
3.028	0.000
3.030	0.000
3.032	-0.015
3.034	-0.020
3.036	-0.020
3.038	-0.020
3.040	-0.005
3.042	0.010
3.044	0.045
3.046	0.025
3.048	0.005
3.050	0.000
3.052	-0.025
3.054	-0.045
3.056	-0.040
3.058	-0.025
3.060	-0.025
3.062	-0.030
3.064	-0.030
3.066	-0.050
3.068	-0.060
3.070	-0.075
3.072	-0.085
3.074	-0.090
3.076	-0.090
3.078	-0.070
3.080	-0.070
3.082	-0.055
3.084	-0.045
3.086	-0.055
3.088	-0.070
3.090	-0.080
3.092	-0.080
3.094	-0.090
3.096	-0.090
3.098	-0.080
3.100	-0.060
3.102	-0.060
3.104	-0.060
3.106	-0.080
3.108	-0.080
3.110	-0.085
3.112	-0.105
3.114	-0.110
3.116	-0.100
3.118	-0.080
3.120	-0.075
3.122	-0.065
3.124	-0.055
3.126	-0.070
3.128	-0.085
3.130	-0.100
3.132	-0.110
3.134	-0.105
3.136	-0.090
3.138	-0.085
3.140	-0.080
3.142	-0.075
3.144	-0.050
3.146	-0.080
3.148	-0.085
3.150	-0.090
3.152	-0.110
3.154	-0.120
3.156	-0.105
3.158	-0.095
3.160	-0.100
3.162	-0.100
3.164	-0.105
3.166	-0.125
3.168	-0.130
3.170	-0.125
3.172	-0.125
3.174	-0.090
3.176	-0.020
3.178	0.045
3.180	0.095
3.182	0.155
3.184	0.235
3.186	0.275
3.188	0.360
3.190	0.460
3.192	0.590
3.194	0.670
3.196	0.675
3.198	0.675
3.200	0.620
3.202	0.575
3.204	0.465
3.206	0.380
3.208	0.270
3.210	0.135
3.212	-0.010
3.214	-0.130
3.216	-0.180
3.218	-0.185
3.220	-0.150
3.222	-0.135
3.224	-0.110
3.226	-0.085
3.228	-0.070
3.230	-0.070
3.232	-0.075
3.234	-0.060
3.236	-0.050
3.238	-0.050
3.240	-0.035
3.242	-0.030
3.244	-0.035
3.246	-0.050
3.248	-0.060
3.250	-0.060
3.252	-0.060
3.254	-0.065
3.256	-0.050
3.258	-0.040
3.260	-0.030
3.262	-0.040
3.264	-0.030
3.266	-0.045
3.268	-0.065
3.270	-0.060
3.272	-0.065
3.274	-0.040
3.276	-0.040
3.278	-0.020
3.280	-0.010
3.282	-0.015
3.284	-0.015
3.286	-0.030
3.288	-0.045
3.290	-0.040
3.292	-0.055
3.294	-0.045
3.296	-0.030
3.298	-0.010
3.300	0.005
3.302	0.010
3.304	0.000
3.306	-0.025
3.308	-0.030
3.310	-0.035
3.312	-0.065
3.314	-0.040
3.316	-0.015
3.318	-0.015
3.320	-0.005
3.322	0.015
3.324	0.010
3.326	0.005
3.328	-0.005
3.330	-0.010
3.332	-0.015
3.334	0.000
3.336	-0.005
3.338	0.000
3.340	0.010
3.342	0.025
3.344	0.030
3.346	0.015
3.348	0.015
3.350	0.000
3.352	0.010
3.354	0.010
3.356	0.030
3.358	0.045
3.360	0.055
3.362	0.065
3.364	0.070
3.366	0.065
3.368	0.060
3.370	0.050
3.372	0.065
3.374	0.070
3.376	0.100
3.378	0.110
3.380	0.115
3.382	0.130
3.384	0.130
3.386	0.120
3.388	0.115
3.390	0.115
3.392	0.125
3.394	0.140
3.396	0.155
3.398	0.170
3.400	0.165
3.402	0.175
3.404	0.165
3.406	0.170
3.408	0.185
3.410	0.180
3.412	0.175
3.414	0.195
3.416	0.200
3.418	0.210
3.420	0.195
3.422	0.215
3.424	0.195
3.426	0.195
3.428	0.190
3.430	0.170
3.432	0.165
3.434	0.170
3.436	0.185
3.438	0.170
3.440	0.175
3.442	0.170
3.444	0.175
3.446	0.130
3.448	0.125
3.450	0.120
3.452	0.105
3.454	0.105
3.456	0.110
3.458	0.105
3.460	0.100
3.462	0.090
3.464	0.075
3.466	0.065
3.468	0.045
3.470	0.025
3.472	0.005
3.474	0.005
3.476	-0.005
3.478	0.005
3.480	0.005
3.482	0.000
3.484	-0.015
3.486	-0.025
3.488	-0.030
3.490	-0.045
3.492	-0.050
3.494	-0.050
3.496	-0.035
3.498	-0.035
3.500	-0.020
3.502	-0.020
3.504	-0.035
3.506	-0.040
3.508	-0.055
3.510	-0.055
3.512	-0.045
3.514	-0.040
3.516	-0.045
3.518	-0.050
3.520	-0.055
3.522	-0.055
3.524	-0.075
3.526	-0.075
3.528	-0.070
3.530	-0.075
3.532	-0.075
3.534	-0.060
3.536	-0.055
3.538	-0.055
3.540	-0.050
3.542	-0.045
3.544	-0.050
3.546	-0.060
3.548	-0.065
3.550	-0.080
3.552	-0.070
3.554	-0.060
3.556	-0.055
3.558	-0.035
3.560	-0.020
3.562	-0.025
3.564	-0.045
3.566	-0.070
3.568	-0.070
3.570	-0.075
3.572	-0.055
3.574	-0.045
3.576	-0.020
3.578	-0.035
3.580	-0.025
3.582	-0.025
3.584	-0.040
3.586	-0.055
3.588	-0.065
3.590	-0.070
3.592	-0.065
3.594	-0.045
3.596	-0.040
3.598	-0.040
3.600	-0.025
3.602	-0.010
3.604	-0.035
3.606	-0.045
3.608	-0.050
3.610	-0.065
3.612	-0.065
3.614	-0.050
3.616	-0.035
3.618	-0.035
3.620	-0.020
3.622	-0.015
3.624	-0.030
3.626	-0.035
3.628	-0.045
3.630	-0.050
3.632	-0.050
3.634	-0.030
3.636	-0.030
3.638	-0.030
3.640	-0.025
3.642	-0.010
3.644	-0.040
3.646	-0.035
3.648	-0.040
3.650	-0.050
3.652	-0.035
3.654	-0.035
3.656	-0.015
3.658	-0.025
3.660	-0.015
3.662	-0.015
3.664	-0.025
3.666	-0.040
3.668	-0.040
3.670	-0.050
3.672	-0.055
3.674	-0.040
3.676	-0.030
3.678	-0.025
3.680	-0.025
3.682	-0.030
3.684	-0.035
3.686	-0.060
3.688	-0.060
3.690	-0.070
3.692	-0.060
3.694	-0.035
3.696	-0.030
3.698	-0.010
3.700	-0.025
3.702	-0.025
3.704	-0.040
3.706	-0.055
3.708	-0.070
3.710	-0.075
3.712	-0.040
3.714	-0.045
3.716	-0.040
3.718	-0.045
3.720	-0.030
3.722	-0.035
3.724	-0.050
3.726	-0.055
3.728	-0.065
3.730	-0.070
3.732	-0.065
3.734	-0.060
3.736	-0.050
3.738	-0.040
3.740	-0.030
3.742	-0.045
3.744	-0.055
3.746	-0.050
3.748	-0.060
3.750	-0.070
3.752	-0.045
3.754	-0.040
3.756	-0.030
3.758	-0.025
3.760	-0.040
3.762	-0.040
3.764	-0.055
3.766	-0.055
3.768	-0.065
3.770	-0.065
3.772	-0.065
3.774	-0.060
3.776	-0.025
3.778	-0.030
3.780	-0.015
3.782	-0.040
3.784	-0.060
3.786	-0.065
3.788	-0.070
3.790	-0.075
3.792	-0.060
3.794	-0.050
3.796	-0.025
3.798	-0.025
3.800	-0.025
3.802	-0.030
3.804	-0.045
3.806	-0.055
3.808	-0.060
3.810	-0.080
3.812	-0.075
3.814	-0.070
3.816	-0.060
3.818	-0.035
3.820	-0.035
3.822	-0.055
3.824	-0.055
3.826	-0.065
3.828	-0.075
3.830	-0.075
3.832	-0.065
3.834	-0.045
3.836	-0.035
3.838	-0.025
3.840	-0.035
3.842	-0.035
3.844	-0.040
3.846	-0.045
3.848	-0.060
3.850	-0.060
3.852	-0.040
3.854	-0.035
3.856	-0.030
3.858	-0.020
3.860	-0.015
3.862	-0.030
3.864	-0.035
3.866	-0.040
3.868	-0.050
3.870	-0.045
3.872	-0.050
3.874	-0.025
3.876	0.005
3.878	0.010
3.880	0.020
3.882	0.030
3.884	0.035
3.886	0.030
3.888	0.035
3.890	0.025
3.892	0.040
3.894	0.045
3.896	0.055
3.898	0.065
3.900	0.075
3.902	0.065
3.904	0.055
3.906	0.045
3.908	0.040
3.910	0.055
3.912	0.065
3.914	0.090
3.916	0.105
3.918	0.125
3.920	0.130
3.922	0.095
3.924	0.090
3.926	0.100
3.928	0.090
3.930	0.095
3.932	0.100
3.934	0.110
3.936	0.125
3.938	0.135
3.940	0.145
3.942	0.145
3.944	0.130
3.946	0.135
3.948	0.120
3.950	0.125
3.952	0.125
3.954	0.135
3.956	0.145
3.958	0.155
3.960	0.170
3.962	0.160
3.964	0.165
3.966	0.165
3.968	0.155
3.970	0.155
3.972	0.160
3.974	0.155
3.976	0.165
3.978	0.180
3.980	0.165
3.982	0.160
3.984	0.160
3.986	0.160
3.988	0.140
3.990	0.130
3.992	0.140
3.994	0.140
3.996	0.135
3.998	0.135
4.000	0.130
4.002	0.110
4.004	0.110
4.006	0.095
4.008	0.090
4.010	0.095
4.012	0.105
4.014	0.120
4.016	0.125
4.018	0.120
4.020	0.110
4.022	0.105
4.024	0.090
4.026	0.085
4.028	0.070
4.030	0.085
4.032	0.105
4.034	0.100
4.036	0.105
4.038	0.100
4.040	0.095
4.042	0.080
4.044	0.070
4.046	0.075
4.048	0.055
4.050	0.070
4.052	0.070
4.054	0.080
4.056	0.085
4.058	0.100
4.060	0.085
4.062	0.065
4.064	0.060
4.066	0.050
4.068	0.050
4.070	0.055
4.072	0.070
4.074	0.080
4.076	0.085
4.078	0.085
4.080	0.070
4.082	0.065
4.084	0.065
4.086	0.045
4.088	0.065
4.090	0.065
4.092	0.065
4.094	0.070
4.096	0.060
4.098	0.070
4.100	0.060
4.102	0.035
4.104	0.030
4.106	0.040
4.108	0.055
4.110	0.085
4.112	0.130
4.114	0.185
4.116	0.235
4.118	0.290
4.120	0.330
4.122	0.395
4.124	0.500
4.126	0.605
4.128	0.705
4.130	0.755
4.132	0.755
4.134	0.740
4.136	0.695
4.138	0.615
4.140	0.515
4.142	0.430
4.144	0.325
4.146	0.190
4.148	0.070
4.150	-0.015
4.152	-0.045
4.154	-0.040
4.156	-0.020
4.158	0.015
4.160	0.025
4.162	0.025
4.164	0.040
4.166	0.060
4.168	0.085
4.170	0.090
4.172	0.100
4.174	0.120
4.176	0.110
4.178	0.090
4.180	0.075
4.182	0.070
4.184	0.065
4.186	0.070
4.188	0.070
4.190	0.085
4.192	0.090
4.194	0.105
4.196	0.105
4.198	0.110
4.200	0.095
4.202	0.095
4.204	0.085
4.206	0.085
4.208	0.085
4.210	0.100
4.212	0.110
4.214	0.120
4.216	0.130
4.218	0.110
4.220	0.090
4.222	0.075
4.224	0.070
4.226	0.070
4.228	0.075
4.230	0.095
4.232	0.115
4.234	0.125
4.236	0.130
4.238	0.125
4.240	0.115
4.242	0.105
4.244	0.100
4.246	0.105
4.248	0.110
4.250	0.120
4.252	0.125
4.254	0.125
4.256	0.130
4.258	0.130
4.260	0.105
4.262	0.105
4.264	0.120
4.266	0.105
4.268	0.110
4.270	0.120
4.272	0.130
4.274	0.145
4.276	0.165
4.278	0.150
4.280	0.140
4.282	0.130
4.284	0.125
4.286	0.130
4.288	0.130
4.290	0.140
4.292	0.140
4.294	0.145
4.296	0.165
4.298	0.170
4.300	0.160
4.302	0.160
4.304	0.165
4.306	0.160
4.308	0.185
4.310	0.180
4.312	0.195
4.314	0.200
4.316	0.210
4.318	0.205
4.320	0.200
4.322	0.200
4.324	0.200
4.326	0.200
4.328	0.215
4.330	0.225
4.332	0.250
4.334	0.260
4.336	0.270
4.338	0.255
4.340	0.255
4.342	0.260
4.344	0.260
4.346	0.245
4.348	0.260
4.350	0.270
4.352	0.265
4.354	0.270
4.356	0.255
4.358	0.265
4.360	0.260
4.362	0.245
4.364	0.240
4.366	0.235
4.368	0.240
4.370	0.255
4.372	0.235
4.374	0.240
4.376	0.240
4.378	0.220
4.380	0.200
4.382	0.180
4.384	0.165
4.386	0.150
4.388	0.155
4.390	0.155
4.392	0.150
4.394	0.135
4.396	0.120
4.398	0.090
4.400	0.085
4.402	0.070
4.404	0.050
4.406	0.040
4.408	0.045
4.410	0.045
4.412	0.040
4.414	0.050
4.416	0.045
4.418	0.030
4.420	0.010
4.422	-0.005
4.424	-0.015
4.426	-0.025
4.428	-0.015
4.430	-0.010
4.432	0.000
4.434	0.005
4.436	0.005
4.438	-0.020
4.440	-0.030
4.442	-0.045
4.444	-0.060
4.446	-0.040
4.448	-0.040
4.450	-0.020
4.452	-0.015
4.454	-0.015
4.456	-0.010
4.458	-0.020
4.460	-0.050
4.462	-0.055
4.464	-0.075
4.466	-0.060
4.468	-0.055
4.470	-0.035
4.472	-0.030
4.474	-0.030
4.476	-0.025
4.478	-0.040
4.480	-0.060
4.482	-0.055
4.484	-0.055
4.486	-0.065
4.488	-0.060
4.490	-0.050
4.492	-0.030
4.494	-0.020
4.496	-0.020
4.498	-0.030
4.500	-0.040
4.502	-0.050
4.504	-0.065
4.506	-0.070
4.508	-0.055
4.510	-0.035
4.512	-0.025
4.514	-0.020
4.516	-0.015
4.518	-0.030
4.520	-0.045
4.522	-0.045
4.524	-0.050
4.526	-0.040
4.528	-0.025
4.530	-0.015
4.532	-0.015
4.534	0.000
4.536	-0.010
4.538	-0.035
4.540	-0.055
4.542	-0.040
4.544	-0.065
4.546	-0.040
4.548	-0.050
4.550	-0.035
4.552	-0.010
4.554	0.005
4.556	-0.020
4.558	-0.040
4.560	-0.040
4.562	-0.040
4.564	-0.065
4.566	-0.045
4.568	-0.035
4.570	-0.025
4.572	-0.025
4.574	-0.010
4.576	-0.015
4.578	-0.035
4.580	-0.035
4.582	-0.045
4.584	-0.050
4.586	-0.050
4.588	-0.040
4.590	-0.040
4.592	-0.045
4.594	-0.025
4.596	-0.040
4.598	-0.045
4.600	-0.055
4.602	-0.070
4.604	-0.070
4.606	-0.060
4.608	-0.045
4.610	-0.035
4.612	-0.030
4.614	-0.025
4.616	-0.025
4.618	-0.035
4.620	-0.050
4.622	-0.075
4.624	-0.100
4.626	-0.070
4.628	-0.050
4.630	-0.050
4.632	-0.040
4.634	-0.035
4.636	-0.040
4.638	-0.050
4.640	-0.060
4.642	-0.075
4.644	-0.070
4.646	-0.050
4.648	-0.050
4.650	-0.050
4.652	-0.040
4.654	-0.035
4.656	-0.045
4.658	-0.060
4.660	-0.070
4.662	-0.075
4.664	-0.080
4.666	-0.075
4.668	-0.040
4.670	-0.045
4.672	-0.040
4.674	-0.035
4.676	-0.055
4.678	-0.055
4.680	-0.065
4.682	-0.075
4.684	-0.075
4.686	-0.060
4.688	-0.065
4.690	-0.060
4.692	-0.055
4.694	-0.045
4.696	-0.045
4.698	-0.060
4.700	-0.080
4.702	-0.070
4.704	-0.075
4.706	-0.060
4.708	-0.055
4.710	-0.065
4.712	-0.045
4.714	-0.045
4.716	-0.050
4.718	-0.065
4.720	-0.065
4.722	-0.075
4.724	-0.080
4.726	-0.065
4.728	-0.055
4.730	-0.050
4.732	-0.050
4.734	-0.040
4.736	-0.060
4.738	-0.065
4.740	-0.075
4.742	-0.085
4.744	-0.080
4.746	-0.065
4.748	-0.060
4.750	-0.055
4.752	-0.050
4.754	-0.035
4.756	-0.065
4.758	-0.070
4.760	-0.055
4.762	-0.085
4.764	-0.070
4.766	-0.065
4.768	-0.045
4.770	-0.060
4.772	-0.050
4.774	-0.045
4.776	-0.070
4.778	-0.080
4.780	-0.075
4.782	-0.085
4.784	-0.090
4.786	-0.070
4.788	-0.050
4.790	-0.055
4.792	-0.045
4.794	-0.040
4.796	-0.050
4.798	-0.075
4.800	-0.075
4.802	-0.090
4.804	-0.090
4.806	-0.075
4.808	-0.070
4.810	-0.060
4.812	-0.045
4.814	-0.050
4.816	-0.065
4.818	-0.080
4.820	-0.075
4.822	-0.075
4.824	-0.065
4.826	-0.065
4.828	-0.065
4.830	-0.065
4.832	-0.050
4.834	-0.065
4.836	-0.075
4.838	-0.075
4.840	-0.075
4.842	-0.085
4.844	-0.075
4.846	-0.060
4.848	-0.040
4.850	-0.040
4.852	-0.030
4.854	-0.030
4.856	-0.045
4.858	-0.055
4.860	-0.055
4.862	-0.050
4.864	-0.045
4.866	-0.040
4.868	-0.035
4.870	-0.015
4.872	0.000
4.874	-0.005
4.876	-0.015
4.878	-0.020
4.880	-0.020
4.882	-0.015
4.884	0.000
4.886	-0.010
4.888	0.005
4.890	0.010
4.892	0.010
4.894	-0.005
4.896	-0.010
4.898	-0.015
4.900	-0.015
4.902	-0.025
4.904	-0.020
4.906	-0.010
4.908	0.010
4.910	0.000
4.912	-0.005
4.914	-0.030
4.916	-0.045
4.918	-0.060
4.920	-0.065
4.922	-0.080
4.924	-0.080
4.926	-0.070
4.928	-0.065
4.930	-0.050
4.932	-0.045
4.934	-0.060
4.936	-0.065
4.938	-0.075
4.940	-0.090
4.942	-0.105
4.944	-0.085
4.946	-0.065
4.948	-0.065
4.950	-0.070
4.952	-0.055
4.954	-0.060
4.956	-0.075
4.958	-0.095
4.960	-0.105
4.962	-0.120
4.964	-0.110
4.966	-0.075
4.968	-0.080
4.970	-0.070
4.972	-0.060
4.974	-0.080
4.976	-0.095
4.978	-0.110
4.980	-0.100
4.982	-0.090
4.984	-0.095
4.986	-0.085
4.988	-0.075
4.990	-0.075
4.992	-0.065
4.994	-0.080
4.996	-0.100
4.998	-0.100
5.000	-0.100
5.002	-0.100
5.004	-0.090
5.006	-0.090
5.008	-0.080
5.010	-0.095
5.012	-0.090
5.014	-0.100
5.016	-0.105
5.018	-0.125
5.020	-0.145
5.022	-0.145
5.024	-0.115
5.026	-0.075
5.028	-0.020
5.030	0.035
5.032	0.090
5.034	0.120
5.036	0.180
5.038	0.245
5.040	0.325
5.042	0.425
5.044	0.555
5.046	0.640
5.048	0.650
5.050	0.645
5.052	0.595
5.054	0.520
5.056	0.425
5.058	0.335
5.060	0.245
5.062	0.130
5.064	0.020
5.066	-0.090
5.068	-0.165
5.070	-0.170
5.072	-0.145
5.074	-0.125
5.076	-0.125
5.078	-0.115
5.080	-0.105
5.082	-0.095
5.084	-0.070
5.086	-0.060
5.088	-0.040
5.090	-0.040
5.092	-0.035
5.094	-0.055
5.096	-0.070
5.098	-0.085
5.100	-0.085
5.102	-0.080
5.104	-0.065
5.106	-0.050
5.108	-0.035
5.110	-0.025
5.112	-0.025
5.114	-0.030
5.116	-0.025
5.118	-0.060
5.120	-0.075
5.122	-0.070
5.124	-0.060
5.126	-0.050
5.128	-0.050
5.130	-0.030
5.132	-0.030
5.134	-0.040
5.136	-0.050
5.138	-0.050
5.140	-0.060
5.142	-0.050
5.144	-0.045
5.146	-0.030
5.148	-0.015
5.150	-0.010
5.152	-0.030
5.154	-0.035
5.156	-0.035
5.158	-0.040
5.160	-0.040
5.162	-0.030
5.164	-0.015
5.166	-0.010
5.168	-0.005
5.170	0.010
5.172	0.005
5.174	-0.020
5.176	-0.030
5.178	-0.040
5.180	-0.045
5.182	-0.045
5.184	-0.020
5.186	-0.010
5.188	0.005
5.190	0.020
5.192	0.015
5.194	0.000
5.196	-0.005
5.198	-0.015
5.200	-0.010
5.202	0.005
5.204	0.015
5.206	0.020
5.208	0.030
5.210	0.050
5.212	0.035
5.214	0.020
5.216	0.025
5.218	0.030
5.220	0.030
5.222	0.050
5.224	0.060
5.226	0.080
5.228	0.085
5.230	0.110
5.232	0.100
5.234	0.080
5.236	0.075
5.238	0.070
5.240	0.080
5.242	0.095
5.244	0.115
5.246	0.125
5.248	0.150
5.250	0.160
5.252	0.160
5.254	0.160
5.256	0.145
5.258	0.145
5.260	0.135
5.262	0.160
5.264	0.175
5.266	0.185
5.268	0.190
5.270	0.195
5.272	0.190
5.274	0.185
5.276	0.175
5.278	0.170
5.280	0.165
5.282	0.180
5.284	0.175
5.286	0.175
5.288	0.170
5.290	0.175
5.292	0.155
5.294	0.145
5.296	0.130
5.298	0.115
5.300	0.105
5.302	0.110
5.304	0.115
5.306	0.110
5.308	0.110
5.310	0.105
5.312	0.080
5.314	0.065
5.316	0.045
5.318	0.015
5.320	0.010
5.322	0.015
5.324	0.015
5.326	0.015
5.328	0.000
5.330	0.015
5.332	0.015
5.334	-0.020
5.336	-0.035
5.338	-0.045
5.340	-0.040
5.342	-0.040
5.344	-0.035
5.346	-0.040
5.348	-0.025
5.350	-0.020
5.352	-0.045
5.354	-0.050
5.356	-0.065
5.358	-0.070
5.360	-0.065
5.362	-0.045
5.364	-0.045
5.366	-0.055
5.368	-0.045
5.370	-0.045
5.372	-0.055
5.374	-0.070
5.376	-0.080
5.378	-0.085
5.380	-0.085
5.382	-0.085
5.384	-0.060
5.386	-0.065
5.388	-0.045
5.390	-0.050
5.392	-0.060
5.394	-0.075
5.396	-0.090
5.398	-0.085
5.400	-0.070
5.402	-0.065
5.404	-0.060
5.406	-0.040
5.408	-0.045
5.410	-0.050
5.412	-0.055
5.414	-0.060
5.416	-0.070
5.418	-0.080
5.420	-0.075
5.422	-0.060
5.424	-0.065
5.426	-0.050
5.428	-0.030
5.430	-0.040
5.432	-0.055
5.434	-0.055
5.436	-0.055
5.438	-0.060
5.440	-0.060
5.442	-0.045
5.444	-0.025
5.446	-0.020
5.448	-0.010
5.450	-0.025
5.452	-0.055
5.454	-0.060
5.456	-0.065
5.458	-0.065
5.460	-0.055
5.462	-0.045
5.464	-0.035
5.466	-0.025
5.468	-0.025
5.470	-0.035
5.472	-0.050
5.474	-0.045
5.476	-0.050
5.478	-0.055
5.480	-0.050
5.482	-0.040
5.484	-0.025
5.486	-0.020
5.488	-0.015
5.490	-0.020
5.492	-0.035
5.494	-0.035
5.496	-0.045
5.498	-0.055
5.500	-0.045
5.502	-0.035
5.504	-0.035
5.506	-0.030
5.508	-0.025
5.510	-0.030
5.512	-0.045
5.514	-0.040
5.516	-0.050
5.518	-0.055
5.520	-0.060
5.522	-0.040
5.524	-0.030
5.526	-0.030
5.528	-0.030
5.530	-0.050
5.532	-0.055
5.534	-0.060
5.536	-0.060
5.538	-0.070
5.540	-0.060
5.542	-0.050
5.544	-0.045
5.546	-0.040
5.548	-0.030
5.550	-0.040
5.552	-0.060
5.554	-0.060
5.556	-0.065
5.558	-0.070
5.560	-0.065
5.562	-0.055
5.564	-0.045
5.566	-0.045
5.568	-0.045
5.570	-0.055
5.572	-0.050
5.574	-0.055
5.576	-0.070
5.578	-0.070
5.580	-0.065
5.582	-0.060
5.584	-0.045
5.586	-0.040
5.588	-0.050
5.590	-0.055
5.592	-0.050
5.594	-0.060
5.596	-0.070
5.598	-0.070
5.600	-0.060
5.602	-0.055
5.604	-0.055
5.606	-0.045
5.608	-0.055
5.610	-0.065
5.612	-0.070
5.614	-0.065
5.616	-0.075
5.618	-0.085
5.620	-0.070
5.622	-0.060
5.624	-0.050
5.626	-0.050
5.628	-0.045
5.630	-0.055
5.632	-0.065
5.634	-0.055
5.636	-0.065
5.638	-0.070
5.640	-0.055
5.642	-0.055
5.644	-0.060
5.646	-0.040
5.648	-0.030
5.650	-0.050
5.652	-0.065
5.654	-0.085
5.656	-0.065
5.658	-0.070
5.660	-0.060
5.662	-0.040
5.664	-0.045
5.666	-0.045
5.668	-0.040
5.670	-0.055
5.672	-0.065
5.674	-0.080
5.676	-0.090
5.678	-0.080
5.680	-0.065
5.682	-0.050
5.684	-0.050
5.686	-0.050
5.688	-0.055
5.690	-0.070
5.692	-0.060
5.694	-0.065
5.696	-0.065
5.698	-0.080
5.700	-0.065
5.702	-0.055
5.704	-0.045
5.706	-0.045
5.708	-0.045
5.710	-0.055
5.712	-0.065
5.714	-0.065
5.716	-0.075
5.718	-0.075
5.720	-0.065
5.722	-0.040
5.724	-0.040
5.726	-0.035
5.728	-0.040
5.730	-0.045
5.732	-0.060
5.734	-0.055
5.736	-0.075
5.738	-0.070
5.740	-0.055
5.742	-0.035
5.744	-0.045
5.746	-0.045
5.748	-0.055
5.750	-0.065
5.752	-0.070
5.754	-0.075
5.756	-0.090
5.758	-0.070
5.760	-0.055
5.762	-0.050
5.764	-0.040
5.766	-0.040
5.768	-0.040
5.770	-0.065
5.772	-0.060
5.774	-0.085
5.776	-0.075
5.778	-0.075
5.780	-0.050
5.782	-0.030
5.784	-0.010
5.786	0.000
5.788	-0.015
5.790	-0.025
5.792	-0.040
5.794	-0.050
5.796	-0.045
5.798	-0.035
5.800	-0.020
5.802	-0.010
5.804	0.000
5.806	0.020
5.808	-0.010
5.810	-0.020
5.812	-0.010
5.814	-0.010
5.816	-0.015
5.818	0.000
5.820	0.025
5.822	0.030
5.824	0.040
5.826	0.040
5.828	0.050
5.830	0.055
5.832	0.070
5.834	0.070
5.836	0.075
5.838	0.085
5.840	0.105
5.842	0.120
5.844	0.130
5.846	0.135
5.848	0.115
5.850	0.110
5.852	0.100
5.854	0.085
5.856	0.080
5.858	0.100
5.860	0.100
5.862	0.110
5.864	0.105
5.866	0.115
5.868	0.105
5.870	0.105
5.872	0.090
5.874	0.095
5.876	0.080
5.878	0.085
5.880	0.105
5.882	0.105
5.884	0.120
5.886	0.120
5.888	0.110
5.890	0.090
5.892	0.090
5.894	0.080
5.896	0.065
5.898	0.075
5.900	0.090
5.902	0.095
5.904	0.095
5.906	0.120
5.908	0.100
5.910	0.090
5.912	0.100
5.914	0.085
5.916	0.070
5.918	0.070
5.920	0.085
5.922	0.100
5.924	0.100
5.926	0.090
5.928	0.100
5.930	0.085
5.932	0.085
5.934	0.070
5.936	0.070
5.938	0.075
5.940	0.075
5.942	0.070
5.944	0.085
5.946	0.070
5.948	0.070
5.950	0.055
5.952	0.045
5.954	0.030
5.956	0.030
5.958	0.050
5.960	0.080
5.962	0.140
5.964	0.215
5.966	0.260
5.968	0.305
5.970	0.365
5.972	0.415
5.974	0.495
5.976	0.595
5.978	0.730
5.980	0.850
5.982	0.865
5.984	0.860
5.986	0.810
5.988	0.730
5.990	0.635
5.992	0.545
5.994	0.425
5.996	0.315
5.998	0.205
6.000	0.090
6.002	0.010
6.004	0.010
6.006	0.040
6.008	0.030
6.010	0.040
6.012	0.050
6.014	0.070
6.016	0.090
6.018	0.115
6.020	0.120
6.022	0.130
6.024	0.130
6.026	0.120
6.028	0.110
6.030	0.105
6.032	0.095
6.034	0.085
6.036	0.090
6.038	0.100
6.040	0.105
6.042	0.110
6.044	0.125
6.046	0.125
6.048	0.110
6.050	0.105
6.052	0.105
6.054	0.085
6.056	0.090
6.058	0.105
6.060	0.105
6.062	0.110
6.064	0.115
6.066	0.120
6.068	0.105
6.070	0.095
6.072	0.095
6.074	0.085
6.076	0.095
6.078	0.110
6.080	0.120
6.082	0.125
6.084	0.135
6.086	0.145
6.088	0.130
6.090	0.110
6.092	0.105
6.094	0.110
6.096	0.115
6.098	0.130
6.100	0.125
6.102	0.145
6.104	0.160
6.106	0.150
6.108	0.135
6.110	0.120
6.112	0.120
6.114	0.120
6.116	0.120
6.118	0.135
6.120	0.145
6.122	0.165
6.124	0.175
6.126	0.165
6.128	0.160
6.130	0.165
6.132	0.165
6.134	0.150
6.136	0.145
6.138	0.155
6.140	0.155
6.142	0.155
6.144	0.160
6.146	0.145
6.148	0.165
6.150	0.175
6.152	0.165
6.154	0.155
6.156	0.175
6.158	0.190
6.160	0.200
6.162	0.225
6.164	0.220
6.166	0.230
6.168	0.230
6.170	0.240
6.172	0.230
6.174	0.225
6.176	0.245
6.178	0.255
6.180	0.260
6.182	0.290
6.184	0.285
6.186	0.270
6.188	0.265
6.190	0.295
6.192	0.315
6.194	0.300
6.196	0.300
6.198	0.300
6.200	0.310
6.202	0.325
6.204	0.320
6.206	0.325
6.208	0.315
6.210	0.315
6.212	0.305
6.214	0.300
6.216	0.305
6.218	0.315
6.220	0.310
6.222	0.310
6.224	0.305
6.226	0.295
6.228	0.285
6.230	0.270
6.232	0.240
6.234	0.225
6.236	0.220
6.238	0.220
6.240	0.220
6.242	0.210
6.244	0.195
6.246	0.165
6.248	0.150
6.250	0.140
6.252	0.135
6.254	0.100
6.256	0.100
6.258	0.095
6.260	0.120
6.262	0.105
6.264	0.100
6.266	0.080
6.268	0.050
6.270	0.035
6.272	0.025
6.274	0.015
6.276	0.005
6.278	0.020
6.280	0.020
6.282	0.020
6.284	0.030
6.286	0.015
6.288	-0.010
6.290	-0.035
6.292	-0.030
6.294	-0.020
6.296	-0.015
6.298	-0.010
6.300	0.000
6.302	0.005
6.304	0.005
6.306	-0.020
6.308	-0.030
6.310	-0.045
6.312	-0.040
6.314	-0.035
6.316	-0.030
6.318	-0.030
6.320	-0.015
6.322	-0.015
6.324	-0.010
6.326	-0.035
6.328	-0.045
6.330	-0.045
6.332	-0.055
6.334	-0.055
6.336	-0.030
6.338	-0.025
6.340	-0.025
6.342	-0.030
6.344	-0.040
6.346	-0.055
6.348	-0.065
6.350	-0.070
6.352	-0.075
6.354	-0.070
6.356	-0.055
6.358	-0.035
6.360	-0.030
6.362	-0.025
6.364	-0.040
6.366	-0.055
6.368	-0.070
6.370	-0.090
6.372	-0.085
6.374	-0.065
6.376	-0.060
6.378	-0.045
6.380	-0.045
6.382	-0.030
6.384	-0.040
6.386	-0.055
6.388	-0.060
6.390	-0.060
6.392	-0.070
6.394	-0.055
6.396	-0.050
6.398	-0.035
6.400	-0.030
6.402	-0.025
6.404	-0.030
6.406	-0.045
6.408	-0.050
6.410	-0.060
6.412	-0.065
6.414	-0.055
6.416	-0.045
6.418	-0.035
6.420	-0.035
6.422	-0.030
6.424	-0.050
6.426	-0.050
6.428	-0.045
6.430	-0.050
6.432	-0.055
6.434	-0.040
6.436	-0.030
6.438	-0.045
6.440	-0.040
6.442	-0.055
6.444	-0.075
6.446	-0.095
6.448	-0.100
6.450	-0.095
6.452	-0.090
6.454	-0.080
6.456	-0.080
6.458	-0.050
6.460	-0.045
6.462	-0.050
6.464	-0.050
6.466	-0.070
6.468	-0.080
6.470	-0.085
6.472	-0.095
6.474	-0.075
6.476	-0.065
6.478	-0.050
6.480	-0.045
6.482	-0.050
6.484	-0.055
6.486	-0.075
6.488	-0.080
6.490	-0.090
6.492	-0.090
6.494	-0.080
6.496	-0.080
6.498	-0.075
6.500	-0.075
6.502	-0.060
6.504	-0.075
6.506	-0.090
6.508	-0.090
6.510	-0.085
6.512	-0.095
6.514	-0.095
6.516	-0.080
6.518	-0.085
6.520	-0.090
6.522	-0.080
6.524	-0.085
6.526	-0.100
6.528	-0.130
6.530	-0.115
6.532	-0.115
6.534	-0.095
6.536	-0.090
6.538	-0.090
6.540	-0.080
6.542	-0.080
6.544	-0.085
6.546	-0.080
6.548	-0.105
6.550	-0.115
6.552	-0.115
6.554	-0.110
6.556	-0.095
6.558	-0.090
6.560	-0.080
6.562	-0.080
6.564	-0.085
6.566	-0.095
6.568	-0.100
6.570	-0.115
6.572	-0.120
6.574	-0.110
6.576	-0.115
6.578	-0.095
6.580	-0.080
6.582	-0.080
6.584	-0.085
6.586	-0.100
6.588	-0.115
6.590	-0.105
6.592	-0.115
6.594	-0.110
6.596	-0.115
6.598	-0.100
6.600	-0.100
6.602	-0.095
6.604	-0.095
6.606	-0.110
6.608	-0.110
6.610	-0.120
6.612	-0.105
6.614	-0.085
6.616	-0.090
6.618	-0.080
6.620	-0.095
6.622	-0.095
6.624	-0.100
6.626	-0.125
6.628	-0.120
6.630	-0.125
6.632	-0.100
6.634	-0.090
6.636	-0.105
6.638	-0.105
6.640	-0.085
6.642	-0.080
6.644	-0.090
6.646	-0.110
6.648	-0.100
6.650	-0.105
6.652	-0.120
6.654	-0.100
6.656	-0.095
6.658	-0.085
6.660	-0.085
6.662	-0.085
6.664	-0.095
6.666	-0.110
6.668	-0.110
6.670	-0.115
6.672	-0.110
6.674	-0.075
6.676	-0.070
6.678	-0.065
6.680	-0.055
6.682	-0.045
6.684	-0.070
6.686	-0.080
6.688	-0.080
6.690	-0.080
6.692	-0.085
6.694	-0.080
6.696	-0.070
6.698	-0.070
6.700	-0.055
6.702	-0.045
6.704	-0.055
6.706	-0.065
6.708	-0.065
6.710	-0.065
6.712	-0.045
6.714	-0.050
6.716	-0.025
6.718	-0.040
6.720	-0.010
6.722	-0.035
6.724	-0.040
6.726	-0.050
6.728	-0.055
6.730	-0.065
6.732	-0.055
6.734	-0.045
6.736	-0.045
6.738	-0.050
6.740	-0.035
6.742	-0.075
6.744	-0.095
6.746	-0.095
6.748	-0.100
6.750	-0.115
6.752	-0.125
6.754	-0.110
6.756	-0.080
6.758	-0.105
6.760	-0.110
6.762	-0.115
6.764	-0.115
6.766	-0.110
6.768	-0.110
6.770	-0.130
6.772	-0.120
6.774	-0.100
6.776	-0.120
6.778	-0.095
6.780	-0.095
6.782	-0.110
6.784	-0.110
6.786	-0.115
6.788	-0.125
6.790	-0.135
6.792	-0.135
6.794	-0.115
6.796	-0.110
6.798	-0.115
6.800	-0.105
6.802	-0.125
6.804	-0.135
6.806	-0.130
6.808	-0.130
6.810	-0.135
6.812	-0.130
6.814	-0.110
6.816	-0.105
6.818	-0.100
6.820	-0.110
6.822	-0.115
6.824	-0.135
6.826	-0.135
6.828	-0.135
6.830	-0.135
6.832	-0.155
6.834	-0.145
6.836	-0.130
6.838	-0.130
6.840	-0.140
6.842	-0.160
6.844	-0.185
6.846	-0.175
6.848	-0.165
6.850	-0.125
6.852	-0.060
6.854	-0.005
6.856	0.045
6.858	0.105
6.860	0.180
6.862	0.245
6.864	0.330
6.866	0.435
6.868	0.515
6.870	0.555
6.872	0.555
6.874	0.525
6.876	0.480
6.878	0.415
6.880	0.360
6.882	0.255
6.884	0.135
6.886	-0.010
6.888	-0.115
6.890	-0.195
6.892	-0.215
6.894	-0.215
6.896	-0.190
6.898	-0.165
6.900	-0.160
6.902	-0.150
6.904	-0.125
6.906	-0.105
6.908	-0.110
6.910	-0.090
6.912	-0.090
6.914	-0.080
6.916	-0.080
6.918	-0.080
6.920	-0.085
6.922	-0.090
6.924	-0.105
6.926	-0.115
6.928	-0.115
6.930	-0.115
6.932	-0.095
6.934	-0.095
6.936	-0.095
6.938	-0.075
6.940	-0.085
6.942	-0.095
6.944	-0.095
6.946	-0.090
6.948	-0.105
6.950	-0.090
6.952	-0.065
6.954	-0.075
6.956	-0.075
6.958	-0.065
6.960	-0.060
6.962	-0.070
6.964	-0.090
6.966	-0.095
6.968	-0.100
6.970	-0.090
6.972	-0.065
6.974	-0.060
6.976	-0.055
6.978	-0.030
6.980	-0.055
6.982	-0.070
6.984	-0.070
6.986	-0.075
6.988	-0.070
6.990	-0.070
6.992	-0.060
6.994	-0.055
6.996	-0.050
6.998	-0.040
7.000	-0.055
7.002	-0.050
7.004	-0.045
7.006	-0.055
7.008	-0.060
7.010	-0.040
7.012	-0.030
7.014	-0.030
7.016	-0.020
7.018	-0.020
7.020	-0.035
7.022	-0.035
7.024	-0.035
7.026	-0.035
7.028	-0.040
7.030	-0.035
7.032	-0.005
7.034	0.020
7.036	0.020
7.038	0.020
7.040	0.010
7.042	0.015
7.044	0.010
7.046	0.010
7.048	0.015
7.050	0.020
7.052	0.025
7.054	0.020
7.056	0.035
7.058	0.055
7.060	0.065
7.062	0.055
7.064	0.060
7.066	0.060
7.068	0.070
7.070	0.100
7.072	0.115
7.074	0.115
7.076	0.105
7.078	0.125
7.080	0.125
7.082	0.115
7.084	0.105
7.086	0.115
7.088	0.110
7.090	0.125
7.092	0.125
7.094	0.130
7.096	0.145
7.098	0.150
7.100	0.135
7.102	0.130
7.104	0.130
7.106	0.115
7.108	0.110
7.110	0.130
7.112	0.135
7.114	0.135
7.116	0.130
7.118	0.130
7.120	0.115
7.122	0.085
7.124	0.075
7.126	0.065
7.128	0.060
7.130	0.055
7.132	0.050
7.134	0.030
7.136	0.040
7.138	0.030
7.140	0.020
7.142	-0.015
7.144	-0.025
7.146	-0.030
7.148	-0.030
7.150	-0.030
7.152	-0.030
7.154	-0.030
7.156	-0.020
7.158	-0.040
7.160	-0.050
7.162	-0.075
7.164	-0.085
7.166	-0.080
7.168	-0.080
7.170	-0.065
7.172	-0.070
7.174	-0.065
7.176	-0.055
7.178	-0.075
7.180	-0.090
7.182	-0.115
7.184	-0.100
7.186	-0.110
7.188	-0.115
7.190	-0.105
7.192	-0.095
7.194	-0.090
7.196	-0.075
7.198	-0.060
7.200	-0.095
7.202	-0.100
7.204	-0.125
7.206	-0.115
7.208	-0.115
7.210	-0.100
7.212	-0.100
7.214	-0.100
7.216	-0.090
7.218	-0.090
7.220	-0.100
7.222	-0.110
7.224	-0.105
7.226	-0.115
7.228	-0.105
7.230	-0.090
7.232	-0.080
7.234	-0.075
7.236	-0.075
7.238	-0.095
7.240	-0.100
7.242	-0.105
7.244	-0.120
7.246	-0.120
7.248	-0.115
7.250	-0.095
7.252	-0.095
7.254	-0.090
7.256	-0.070
7.258	-0.095
7.260	-0.095
7.262	-0.090
7.264	-0.105
7.266	-0.110
7.268	-0.090
7.270	-0.070
7.272	-0.070
7.274	-0.070
7.276	-0.070
7.278	-0.085
7.280	-0.100
7.282	-0.100
7.284	-0.100
7.286	-0.110
7.288	-0.110
7.290	-0.090
7.292	-0.090
7.294	-0.070
7.296	-0.070
7.298	-0.075
7.300	-0.095
7.302	-0.110
7.304	-0.100
7.306	-0.100
7.308	-0.095
7.310	-0.095
7.312	-0.080
7.314	-0.075
7.316	-0.050
7.318	-0.065
7.320	-0.085
7.322	-0.090
7.324	-0.110
7.326	-0.115
7.328	-0.100
7.330	-0.095
7.332	-0.085
7.334	-0.065
7.336	-0.060
7.338	-0.065
7.340	-0.095
7.342	-0.120
7.344	-0.100
7.346	-0.100
7.348	-0.105
7.350	-0.085
7.352	-0.075
7.354	-0.075
7.356	-0.070
7.358	-0.085
7.360	-0.100
7.362	-0.115
7.364	-0.120
7.366	-0.115
7.368	-0.100
7.370	-0.080
7.372	-0.090
7.374	-0.090
7.376	-0.070
7.378	-0.095
7.380	-0.115
7.382	-0.115
7.384	-0.115
7.386	-0.120
7.388	-0.115
7.390	-0.095
7.392	-0.100
7.394	-0.095
7.396	-0.075
7.398	-0.095
7.400	-0.110
7.402	-0.125
7.404	-0.120
7.406	-0.100
7.408	-0.115
7.410	-0.110
7.412	-0.100
7.414	-0.080
7.416	-0.095
7.418	-0.095
7.420	-0.110
7.422	-0.130
7.424	-0.120
7.426	-0.125
7.428	-0.120
7.430	-0.110
7.432	-0.105
7.434	-0.095
7.436	-0.100
7.438	-0.105
7.440	-0.120
7.442	-0.120
7.444	-0.125
7.446	-0.120
7.448	-0.105
7.450	-0.095
7.452	-0.095
7.454	-0.090
7.456	-0.100
7.458	-0.105
7.460	-0.115
7.462	-0.115
7.464	-0.140
7.466	-0.135
7.468	-0.120
7.470	-0.120
7.472	-0.110
7.474	-0.105
7.476	-0.095
7.478	-0.115
7.480	-0.130
7.482	-0.130
7.484	-0.115
7.486	-0.125
7.488	-0.105
7.490	-0.105
7.492	-0.095
7.494	-0.095
7.496	-0.110
7.498	-0.105
7.500	-0.105
7.502	-0.115
7.504	-0.135
7.506	-0.145
7.508	-0.115
7.510	-0.100
7.512	-0.110
7.514	-0.095
7.516	-0.095
7.518	-0.110
7.520	-0.115
7.522	-0.120
7.524	-0.130
7.526	-0.140
7.528	-0.125
7.530	-0.115
7.532	-0.100
7.534	-0.100
7.536	-0.110
7.538	-0.105
7.540	-0.105
7.542	-0.100
7.544	-0.125
7.546	-0.105
7.548	-0.080
7.550	-0.080
7.552	-0.060
7.554	-0.065
7.556	-0.065
7.558	-0.080
7.560	-0.095
7.562	-0.100
7.564	-0.110
7.566	-0.105
7.568	-0.075
7.570	-0.050
7.572	-0.050
7.574	-0.045
7.576	-0.050
7.578	-0.065
7.580	-0.070
7.582	-0.055
7.584	-0.065
7.586	-0.055
7.588	-0.060
7.590	-0.040
7.592	-0.035
7.594	-0.030
7.596	-0.045
7.598	-0.060
7.600	-0.065
7.602	-0.065
7.604	-0.075
7.606	-0.075
7.608	-0.075
7.610	-0.075
7.612	-0.050
7.614	-0.070
7.616	-0.095
7.618	-0.095
7.620	-0.110
7.622	-0.115
7.624	-0.135
7.626	-0.110
7.628	-0.105
7.630	-0.115
7.632	-0.105
7.634	-0.100
7.636	-0.105
7.638	-0.115
7.640	-0.135
7.642	-0.140
7.644	-0.130
7.646	-0.130
7.648	-0.120
7.650	-0.115
7.652	-0.100
7.654	-0.095
7.656	-0.105
7.658	-0.120
7.660	-0.120
7.662	-0.120
7.664	-0.150
7.666	-0.130
7.668	-0.120
7.670	-0.115
7.672	-0.135
7.674	-0.120
7.676	-0.110
7.678	-0.110
7.680	-0.115
7.682	-0.130
7.684	-0.135
7.686	-0.135
7.688	-0.125
7.690	-0.105
7.692	-0.110
7.694	-0.110
7.696	-0.135
7.698	-0.135
7.700	-0.150
7.702	-0.160
7.704	-0.160
7.706	-0.145
7.708	-0.150
7.710	-0.170
7.712	-0.150
7.714	-0.135
7.716	-0.115
7.718	-0.080
7.720	-0.040
7.722	0.000
7.724	0.030
7.726	0.095
7.728	0.155
7.730	0.240
7.732	0.345
7.734	0.415
7.736	0.500
7.738	0.485
7.740	0.465
7.742	0.395
7.744	0.350
7.746	0.285
7.748	0.240
7.750	0.175
7.752	0.085
7.754	-0.025
7.756	-0.135
7.758	-0.220
7.760	-0.225
7.762	-0.205
7.764	-0.180
7.766	-0.150
7.768	-0.135
7.770	-0.110
7.772	-0.095
7.774	-0.085
7.776	-0.075
7.778	-0.095
7.780	-0.105
7.782	-0.125
7.784	-0.120
7.786	-0.120
7.788	-0.110
7.790	-0.095
7.792	-0.080
7.794	-0.075
7.796	-0.085
7.798	-0.100
7.800	-0.120
7.802	-0.125
7.804	-0.110
7.806	-0.120
7.808	-0.115
7.810	-0.100
7.812	-0.090
7.814	-0.085
7.816	-0.100
7.818	-0.100
7.820	-0.090
7.822	-0.095
7.824	-0.085
7.826	-0.090
7.828	-0.090
7.830	-0.085
7.832	-0.065
7.834	-0.075
7.836	-0.080
7.838	-0.075
7.840	-0.080
7.842	-0.100
7.844	-0.090
7.846	-0.070
7.848	-0.055
7.850	-0.065
7.852	-0.065
7.854	-0.060
7.856	-0.035
7.858	-0.025
7.860	-0.015
7.862	0.000
7.864	0.015
7.866	0.040
7.868	0.040
7.870	0.075
7.872	0.085
7.874	0.085
7.876	0.090
7.878	0.095
7.880	0.070
7.882	0.080
7.884	0.100
7.886	0.100
7.888	0.120
7.890	0.135
7.892	0.145
7.894	0.125
7.896	0.135
7.898	0.130
7.900	0.115
7.902	0.135
7.904	0.145
7.906	0.180
7.908	0.190
7.910	0.175
7.912	0.185
7.914	0.190
7.916	0.180
7.918	0.185
7.920	0.180
7.922	0.185
7.924	0.195
7.926	0.215
7.928	0.210
7.930	0.220
7.932	0.250
7.934	0.255
7.936	0.250
7.938	0.260
7.940	0.245
7.942	0.260
7.944	0.260
7.946	0.285
7.948	0.275
7.950	0.305
7.952	0.305
7.954	0.295
7.956	0.290
7.958	0.270
7.960	0.275
7.962	0.280
7.964	0.285
7.966	0.295
7.968	0.320
7.970	0.290
7.972	0.320
7.974	0.305
7.976	0.300
7.978	0.280
7.980	0.260
7.982	0.270
7.984	0.260
7.986	0.270
7.988	0.270
7.990	0.265
7.992	0.265
7.994	0.240
7.996	0.215
7.998	0.225
8.000	0.210
8.002	0.180
8.004	0.175
8.006	0.170
8.008	0.170
8.010	0.185
8.012	0.160
8.014	0.145
8.016	0.125
8.018	0.115
8.020	0.100
8.022	0.110
8.024	0.105
8.026	0.100
8.028	0.130
8.030	0.110
8.032	0.105
8.034	0.085
8.036	0.070
8.038	0.065
8.040	0.065
8.042	0.060
8.044	0.075
8.046	0.075
8.048	0.070
8.050	0.065
8.052	0.065
8.054	0.060
8.056	0.045
8.058	0.035
8.060	0.035
8.062	0.020
8.064	0.035
8.066	0.050
8.068	0.050
8.070	0.070
8.072	0.070
8.074	0.050
8.076	0.050
8.078	0.040
8.080	0.030
8.082	0.035
8.084	0.050
8.086	0.050
8.088	0.070
8.090	0.080
8.092	0.055
8.094	0.045
8.096	0.040
8.098	0.030
8.100	0.040
8.102	0.020
8.104	0.040
8.106	0.050
8.108	0.050
8.110	0.060
8.112	0.045
8.114	0.035
8.116	0.035
8.118	0.025
8.120	0.025
8.122	0.030
8.124	0.040
8.126	0.050
8.128	0.055
8.130	0.065
8.132	0.050
8.134	0.045
8.136	0.030
8.138	0.020
8.140	0.015
8.142	0.010
8.144	0.015
8.146	0.030
8.148	0.040
8.150	0.050
8.152	0.040
8.154	0.025
8.156	0.020
8.158	0.005
8.160	0.010
8.162	0.010
8.164	0.030
8.166	0.035
8.168	0.045
8.170	0.035
8.172	0.035
8.174	0.015
8.176	0.010
8.178	0.000
8.180	-0.010
8.182	-0.005
8.184	0.015
8.186	0.015
8.188	0.010
8.190	0.025
8.192	0.015
8.194	0.005
8.196	-0.015
8.198	0.010
8.200	0.005
8.202	-0.005
8.204	0.005
8.206	0.010
8.208	0.020
8.210	0.000
8.212	0.010
8.214	-0.015
8.216	-0.040
8.218	-0.045
8.220	-0.050
8.222	-0.030
8.224	-0.015
8.226	-0.005
8.228	0.010
8.230	-0.030
8.232	0.000
8.234	-0.010
8.236	-0.010
8.238	-0.030
8.240	-0.025
8.242	-0.040
8.244	-0.035
8.246	-0.010
8.248	-0.005
8.250	-0.020
8.252	-0.030
8.254	-0.040
8.256	-0.030
8.258	-0.045
8.260	-0.060
8.262	-0.020
8.264	0.000
8.266	-0.025
8.268	-0.020
8.270	0.015
8.272	-0.035
8.274	-0.040
8.276	-0.060
8.278	-0.050
8.280	-0.035
8.282	-0.050
8.284	-0.035
8.286	-0.050
8.288	-0.040
8.290	-0.030
8.292	-0.030
8.294	-0.050
8.296	-0.045
8.298	-0.060
8.300	-0.080
8.302	-0.045
8.304	-0.040
8.306	-0.045
8.308	-0.040
8.310	-0.030
8.312	-0.065
8.314	-0.065
8.316	-0.055
8.318	-0.070
8.320	-0.075
8.322	-0.070
8.324	-0.055
8.326	-0.055
8.328	-0.060
8.330	-0.050
8.332	-0.065
8.334	-0.075
8.336	-0.075
8.338	-0.085
8.340	-0.095
8.342	-0.080
8.344	-0.070
8.346	-0.070
8.348	-0.065
8.350	-0.075
8.352	-0.075
8.354	-0.080
8.356	-0.075
8.358	-0.100
8.360	-0.085
8.362	-0.080
8.364	-0.075
8.366	-0.055
8.368	-0.060
8.370	-0.080
8.372	-0.090
8.374	-0.105
8.376	-0.110
8.378	-0.110
8.380	-0.100
8.382	-0.075
8.384	-0.065
8.386	-0.055
8.388	-0.050
8.390	-0.055
8.392	-0.075
8.394	-0.065
8.396	-0.060
8.398	-0.065
8.400	-0.055
8.402	-0.040
8.404	-0.045
8.406	-0.040
8.408	-0.045
8.410	-0.050
8.412	-0.070
8.414	-0.080
8.416	-0.080
8.418	-0.065
8.420	-0.025
8.422	-0.030
8.424	-0.030
8.426	-0.030
8.428	0.000
8.430	-0.010
8.432	-0.020
8.434	-0.035
8.436	-0.040
8.438	-0.045
8.440	-0.040
8.442	-0.025
8.444	-0.030
8.446	-0.030
8.448	-0.025
8.450	-0.005
8.452	-0.035
8.454	-0.045
8.456	-0.065
8.458	-0.100
8.460	-0.085
8.462	-0.080
8.464	-0.080
8.466	-0.080
8.468	-0.080
8.470	-0.090
8.472	-0.100
8.474	-0.115
8.476	-0.120
8.478	-0.135
8.480	-0.130
8.482	-0.105
8.484	-0.115
8.486	-0.100
8.488	-0.105
8.490	-0.095
8.492	-0.100
8.494	-0.120
8.496	-0.130
8.498	-0.135
8.500	-0.120
8.502	-0.115
8.504	-0.105
8.506	-0.105
8.508	-0.105
8.510	-0.120
8.512	-0.140
8.514	-0.135
8.516	-0.130
8.518	-0.145
8.520	-0.130
8.522	-0.110
8.524	-0.110
8.526	-0.130
8.528	-0.115
8.530	-0.110
8.532	-0.125
8.534	-0.140
8.536	-0.140
8.538	-0.160
8.540	-0.130
8.542	-0.125
8.544	-0.130
8.546	-0.150
8.548	-0.120
8.550	-0.145
8.552	-0.160
8.554	-0.175
8.556	-0.160
8.558	-0.195
8.560	-0.185
8.562	-0.140
8.564	-0.090
8.566	-0.045
8.568	0.010
8.570	0.050
8.572	0.070
8.574	0.120
8.576	0.190
8.578	0.280
8.580	0.390
8.582	0.505
8.584	0.520
8.586	0.510
8.588	0.470
8.590	0.385
8.592	0.330
8.594	0.250
8.596	0.155
8.598	0.060
8.600	-0.060
8.602	-0.135
8.604	-0.205
8.606	-0.220
8.608	-0.205
8.610	-0.210
8.612	-0.195
8.614	-0.165
8.616	-0.145
8.618	-0.130
8.620	-0.130
8.622	-0.110
8.624	-0.090
8.626	-0.095
8.628	-0.105
8.630	-0.115
8.632	-0.115
8.634	-0.115
8.636	-0.115
8.638	-0.110
8.640	-0.110
8.642	-0.080
8.644	-0.120
8.646	-0.100
8.648	-0.080
8.650	-0.110
8.652	-0.145
8.654	-0.125
8.656	-0.130
8.658	-0.115
8.660	-0.110
8.662	-0.080
8.664	-0.065
8.666	-0.070
8.668	-0.080
8.670	-0.095
8.672	-0.100
8.674	-0.095
8.676	-0.115
8.678	-0.110
8.680	-0.085
8.682	-0.090
8.684	-0.065
8.686	-0.040
8.688	-0.065
8.690	-0.045
8.692	-0.080
8.694	-0.065
8.696	-0.100
8.698	-0.105
8.700	-0.095
8.702	-0.080
8.704	-0.070
8.706	-0.060
8.708	-0.080
8.710	-0.080
8.712	-0.075
8.714	-0.055
8.716	-0.095
8.718	-0.075
8.720	-0.055
8.722	-0.035
8.724	-0.030
8.726	-0.030
8.728	-0.035
8.730	-0.045
8.732	-0.040
8.734	-0.045
8.736	-0.045
8.738	-0.045
8.740	-0.035
8.742	-0.015
8.744	0.000
8.746	0.005
8.748	0.000
8.750	-0.015
8.752	-0.020
8.754	-0.025
8.756	-0.015
8.758	0.000
8.760	-0.010
8.762	0.020
8.764	0.030
8.766	0.050
8.768	0.055
8.770	0.045
8.772	0.040
8.774	0.030
8.776	0.030
8.778	0.035
8.780	0.055
8.782	0.065
8.784	0.085
8.786	0.130
8.788	0.100
8.790	0.075
8.792	0.090
8.794	0.090
8.796	0.095
8.798	0.095
8.800	0.110
8.802	0.120
8.804	0.130
8.806	0.150
8.808	0.135
8.810	0.100
8.812	0.100
8.814	0.115
8.816	0.095
8.818	0.115
8.820	0.125
8.822	0.110
8.824	0.125
8.826	0.115
8.828	0.105
8.830	0.090
8.832	0.085
8.834	0.070
8.836	0.060
8.838	0.060
8.840	0.050
8.842	0.095
8.844	0.045
8.846	0.040
8.848	0.030
8.850	-0.005
8.852	-0.015
8.854	-0.010
8.856	-0.035
8.858	-0.040
8.860	-0.030
8.862	-0.040
8.864	-0.050
8.866	-0.040
8.868	-0.060
8.870	-0.100
8.872	-0.105
8.874	-0.105
8.876	-0.115
8.878	-0.095
8.880	-0.090
8.882	-0.065
8.884	-0.085
8.886	-0.090
8.888	-0.115
8.890	-0.135
8.892	-0.135
8.894	-0.115
8.896	-0.125
8.898	-0.125
8.900	-0.120
8.902	-0.110
8.904	-0.095
8.906	-0.100
8.908	-0.115
8.910	-0.125
8.912	-0.140
8.914	-0.145
8.916	-0.140
8.918	-0.120
8.920	-0.115
8.922	-0.105
8.924	-0.105
8.926	-0.100
8.928	-0.115
8.930	-0.120
8.932	-0.135
8.934	-0.140
8.936	-0.140
8.938	-0.125
8.940	-0.105
8.942	-0.110
8.944	-0.100
8.946	-0.105
8.948	-0.100
8.950	-0.105
8.952	-0.110
8.954	-0.125
8.956	-0.140
8.958	-0.125
8.960	-0.115
8.962	-0.135
8.964	-0.105
8.966	-0.110
8.968	-0.120
8.970	-0.125
8.972	-0.125
8.974	-0.125
8.976	-0.120
8.978	-0.125
8.980	-0.110
8.982	-0.095
8.984	-0.090
8.986	-0.095
8.988	-0.105
8.990	-0.110
8.992	-0.100
8.994	-0.120
8.996	-0.130
8.998	-0.125
9.000	-0.105
9.002	-0.105
9.004	-0.095
9.006	-0.105
9.008	-0.110
9.010	-0.100
9.012	-0.130
9.014	-0.135
9.016	-0.125
9.018	-0.110
9.020	-0.110
9.022	-0.095
9.024	-0.090
9.026	-0.080
9.028	-0.085
9.030	-0.095
9.032	-0.120
9.034	-0.120
9.036	-0.130
9.038	-0.115
9.040	-0.120
9.042	-0.100
9.044	-0.090
9.046	-0.095
9.048	-0.110
9.050	-0.120
9.052	-0.120
9.054	-0.120
9.056	-0.120
9.058	-0.110
9.060	-0.110
9.062	-0.100
9.064	-0.100
9.066	-0.110
9.068	-0.120
9.070	-0.125
9.072	-0.120
9.074	-0.130
9.076	-0.135
9.078	-0.125
9.080	-0.115
9.082	-0.105
9.084	-0.095
9.086	-0.125
9.088	-0.130
9.090	-0.135
9.092	-0.135
9.094	-0.145
9.096	-0.125
9.098	-0.115
9.100	-0.130
9.102	-0.115
9.104	-0.115
9.106	-0.110
9.108	-0.125
9.110	-0.125
9.112	-0.135
9.114	-0.130
9.116	-0.125
9.118	-0.125
9.120	-0.130
9.122	-0.125
9.124	-0.120
9.126	-0.140
9.128	-0.140
9.130	-0.140
9.132	-0.145
9.134	-0.160
9.136	-0.140
9.138	-0.130
9.140	-0.120
9.142	-0.115
9.144	-0.110
9.146	-0.130
9.148	-0.140
9.150	-0.140
9.152	-0.150
9.154	-0.155
9.156	-0.135
9.158	-0.125
9.160	-0.110
9.162	-0.100
9.164	-0.100
9.166	-0.130
9.168	-0.125
9.170	-0.140
9.172	-0.150
9.174	-0.150
9.176	-0.130
9.178	-0.120
9.180	-0.130
9.182	-0.105
9.184	-0.125
9.186	-0.140
9.188	-0.145
9.190	-0.135
9.192	-0.140
9.194	-0.160
9.196	-0.125
9.198	-0.130
9.200	-0.140
9.202	-0.135
9.204	-0.140
9.206	-0.150
9.208	-0.135
9.210	-0.145
9.212	-0.150
9.214	-0.150
9.216	-0.130
9.218	-0.120
9.220	-0.110
9.222	-0.100
9.224	-0.110
9.226	-0.105
9.228	-0.110
9.230	-0.105
9.232	-0.115
9.234	-0.110
9.236	-0.120
9.238	-0.100
9.240	-0.110
9.242	-0.085
9.244	-0.105
9.246	-0.100
9.248	-0.100
9.250	-0.095
9.252	-0.085
9.254	-0.085
9.256	-0.080
9.258	-0.060
9.260	-0.060
9.262	-0.045
9.264	-0.060
9.266	-0.070
9.268	-0.060
9.270	-0.070
9.272	-0.070
9.274	-0.065
9.276	-0.075
9.278	-0.085
9.280	-0.070
9.282	-0.090
9.284	-0.100
9.286	-0.100
9.288	-0.115
9.290	-0.125
9.292	-0.140
9.294	-0.130
9.296	-0.125
9.298	-0.125
9.300	-0.135
9.302	-0.125
9.304	-0.140
9.306	-0.130
9.308	-0.130
9.310	-0.145
9.312	-0.150
9.314	-0.135
9.316	-0.140
9.318	-0.140
9.320	-0.115
9.322	-0.130
9.324	-0.145
9.326	-0.150
9.328	-0.145
9.330	-0.160
9.332	-0.165
9.334	-0.145
9.336	-0.135
9.338	-0.130
9.340	-0.130
9.342	-0.140
9.344	-0.140
9.346	-0.150
9.348	-0.165
9.350	-0.160
9.352	-0.185
9.354	-0.150
9.356	-0.135
9.358	-0.130
9.360	-0.145
9.362	-0.135
9.364	-0.135
9.366	-0.160
9.368	-0.160
9.370	-0.170
9.372	-0.185
9.374	-0.170
9.376	-0.175
9.378	-0.165
9.380	-0.170
9.382	-0.165
9.384	-0.180
9.386	-0.195
9.388	-0.210
9.390	-0.190
9.392	-0.165
9.394	-0.110
9.396	-0.050
9.398	0.000
9.400	0.055
9.402	0.125
9.404	0.185
9.406	0.280
9.408	0.375
9.410	0.495
9.412	0.585
9.414	0.580
9.416	0.555
9.418	0.490
9.420	0.430
9.422	0.325
9.424	0.235
9.426	0.105
9.428	-0.010
9.430	-0.120
9.432	-0.240
9.434	-0.275
9.436	-0.260
9.438	-0.220
9.440	-0.195
9.442	-0.185
9.444	-0.150
9.446	-0.135
9.448	-0.160
9.450	-0.145
9.452	-0.140
9.454	-0.125
9.456	-0.115
9.458	-0.115
9.460	-0.110
9.462	-0.110
9.464	-0.135
9.466	-0.130
9.468	-0.140
9.470	-0.145
9.472	-0.150
9.474	-0.120
9.476	-0.120
9.478	-0.115
9.480	-0.105
9.482	-0.090
9.484	-0.115
9.486	-0.125
9.488	-0.125
9.490	-0.130
9.492	-0.125
9.494	-0.120
9.496	-0.095
9.498	-0.100
9.500	-0.100
9.502	-0.100
9.504	-0.110
9.506	-0.120
9.508	-0.120
9.510	-0.125
9.512	-0.100
9.514	-0.110
9.516	-0.090
9.518	-0.080
9.520	-0.080
9.522	-0.075
9.524	-0.080
9.526	-0.085
9.528	-0.100
9.530	-0.095
9.532	-0.100
9.534	-0.075
9.536	-0.075
9.538	-0.070
9.540	-0.065
9.542	-0.065
9.544	-0.080
9.546	-0.090
9.548	-0.095
9.550	-0.095
9.552	-0.075
9.554	-0.070
9.556	-0.060
9.558	-0.040
9.560	-0.035
9.562	-0.045
9.564	-0.065
9.566	-0.065
9.568	-0.055
9.570	-0.050
9.572	-0.045
9.574	-0.040
9.576	-0.025
9.578	0.005
9.580	0.005
9.582	0.015
9.584	0.005
9.586	-0.010
9.588	-0.010
9.590	-0.020
9.592	-0.005
9.594	0.005
9.596	0.030
9.598	0.025
9.600	0.040
9.602	0.065
9.604	0.060
9.606	0.055
9.608	0.055
9.610	0.045
9.612	0.060
9.614	0.070
9.616	0.075
9.618	0.095
9.620	0.120
9.622	0.115
9.624	0.125
9.626	0.120
9.628	0.120
9.630	0.115
9.632	0.110
9.634	0.125
9.636	0.150
9.638	0.140
9.640	0.145
9.642	0.145
9.644	0.130
9.646	0.110
9.648	0.095
9.650	0.095
9.652	0.095
9.654	0.120
9.656	0.120
9.658	0.125
9.660	0.125
9.662	0.105
9.664	0.095
9.666	0.070
9.668	0.060
9.670	0.045
9.672	0.040
9.674	0.040
9.676	0.040
9.678	0.015
9.680	0.020
9.682	0.015
9.684	-0.025
9.686	-0.055
9.688	-0.045
9.690	-0.050
9.692	-0.065
9.694	-0.065
9.696	-0.045
9.698	-0.055
9.700	-0.055
9.702	-0.070
9.704	-0.085
9.706	-0.105
9.708	-0.110
9.710	-0.110
9.712	-0.115
9.714	-0.110
9.716	-0.105
9.718	-0.110
9.720	-0.105
9.722	-0.100
9.724	-0.095
9.726	-0.130
9.728	-0.135
9.730	-0.140
9.732	-0.115
9.734	-0.125
9.736	-0.125
9.738	-0.095
9.740	-0.100
9.742	-0.125
9.744	-0.140
9.746	-0.135
9.748	-0.140
9.750	-0.145
9.752	-0.125
9.754	-0.115
9.756	-0.110
9.758	-0.120
9.760	-0.110
9.762	-0.125
9.764	-0.125
9.766	-0.125
9.768	-0.125
9.770	-0.135
9.772	-0.115
9.774	-0.120
9.776	-0.110
9.778	-0.100
9.780	-0.085
9.782	-0.105
9.784	-0.110
9.786	-0.125
9.788	-0.125
9.790	-0.125
9.792	-0.120
9.794	-0.095
9.796	-0.095
9.798	-0.090
9.800	-0.100
9.802	-0.105
9.804	-0.115
9.806	-0.115
9.808	-0.125
9.810	-0.130
9.812	-0.105
9.814	-0.100
9.816	-0.080
9.818	-0.090
9.820	-0.075
9.822	-0.100
9.824	-0.125
9.826	-0.120
9.828	-0.125
9.830	-0.130
9.832	-0.090
9.834	-0.095
9.836	-0.080
9.838	-0.070
9.840	-0.080
9.842	-0.090
9.844	-0.110
9.846	-0.115
9.848	-0.120
9.850	-0.110
9.852	-0.100
9.854	-0.100
9.856	-0.090
9.858	-0.080
9.860	-0.095
9.862	-0.105
9.864	-0.105
9.866	-0.125
9.868	-0.115
9.870	-0.110
9.872	-0.105
9.874	-0.100
9.876	-0.090
9.878	-0.095
9.880	-0.100
9.882	-0.115
9.884	-0.110
9.886	-0.105
9.888	-0.080
9.890	-0.075
9.892	-0.055
9.894	-0.045
9.896	-0.025
9.898	0.000
9.900	0.000
9.902	-0.005
9.904	-0.025
9.906	-0.010
9.908	-0.015
9.910	-0.025
9.912	0.005
9.914	0.015
9.916	0.020
9.918	0.035
9.920	0.035
9.922	0.015
9.924	0.005
9.926	-0.010
9.928	-0.010
9.930	0.015
9.932	0.030
9.934	0.035
9.936	0.035
9.938	0.040
9.940	0.020
9.942	0.010
9.944	0.005
9.946	0.005
9.948	0.010
9.950	0.010
9.952	0.025
9.954	0.030
9.956	0.045
9.958	0.055
9.960	0.050
9.962	0.030
9.964	0.010
9.966	0.010
9.968	0.005
9.970	0.005
9.972	0.025
9.974	0.040
9.976	0.050
9.978	0.035
9.980	0.025
9.982	0.020
9.984	0.010
9.986	0.015
9.988	0.015
9.990	0.015
9.992	0.030
9.994	0.020
9.996	0.035
9.998	0.040
10.000	0.025
10.002	0.020
10.004	0.020
10.006	0.000
10.008	0.005
10.010	0.005
10.012	0.030
10.014	0.030
10.016	0.030
10.018	0.035
10.020	0.015
10.022	-0.010
10.024	-0.015
10.026	-0.005
10.028	-0.005
10.030	0.010
10.032	0.015
10.034	0.035
10.036	0.035
10.038	0.040
10.040	0.025
10.042	0.015
10.044	0.010
10.046	0.010
10.048	0.020
10.050	0.030
10.052	0.040
10.054	0.045
10.056	0.055
10.058	0.050
10.060	0.045
10.062	0.030
10.064	0.020
10.066	0.025
10.068	0.040
10.070	0.050
10.072	0.075
10.074	0.090
10.076	0.100
10.078	0.095
10.080	0.080
10.082	0.075
10.084	0.045
10.086	0.040
10.088	0.040
10.090	0.055
10.092	0.070
10.094	0.070
10.096	0.080
10.098	0.075
10.100	0.050
10.102	0.025
10.104	0.010
10.106	-0.005
10.108	0.000
10.110	0.005
10.112	0.000
10.114	0.005
10.116	0.010
10.118	0.010
10.120	-0.020
10.122	-0.030
10.124	-0.040
10.126	-0.050
10.128	-0.050
10.130	-0.040
10.132	-0.050
10.134	-0.035
10.136	-0.035
10.138	-0.040
10.140	-0.045
10.142	-0.050
10.144	-0.060
10.146	-0.075
10.148	-0.075
10.150	-0.075
10.152	-0.065
10.154	-0.060
10.156	-0.050
10.158	-0.060
10.160	-0.065
10.162	-0.085
10.164	-0.085
10.166	-0.095
10.168	-0.090
10.170	-0.070
10.172	-0.075
10.174	-0.075
10.176	-0.070
10.178	-0.060
10.180	-0.070
10.182	-0.075
10.184	-0.090
10.186	-0.100
10.188	-0.085
10.190	-0.080
10.192	-0.085
10.194	-0.075
10.196	-0.075
10.198	-0.095
10.200	-0.120
10.202	-0.125
10.204	-0.145
10.206	-0.170
10.208	-0.155
10.210	-0.145
10.212	-0.115
10.214	-0.070
10.216	-0.005
10.218	0.060
10.220	0.080
10.222	0.135
10.224	0.215
10.226	0.285
10.228	0.410
10.230	0.550
10.232	0.650
10.234	0.685
10.236	0.675
10.238	0.615
10.240	0.535
10.242	0.440
10.244	0.330
10.246	0.230
10.248	0.105
10.250	-0.010
10.252	-0.130
10.254	-0.205
10.256	-0.225
10.258	-0.210
10.260	-0.195
10.262	-0.190
10.264	-0.165
10.266	-0.150
10.268	-0.120
10.270	-0.095
10.272	-0.080
10.274	-0.080
10.276	-0.075
10.278	-0.075
10.280	-0.105
10.282	-0.110
10.284	-0.115
10.286	-0.120
10.288	-0.100
10.290	-0.085
10.292	-0.085
10.294	-0.080
10.296	-0.085
10.298	-0.100
10.300	-0.105
10.302	-0.115
10.304	-0.115
10.306	-0.115
10.308	-0.105
10.310	-0.100
10.312	-0.095
10.314	-0.085
10.316	-0.075
10.318	-0.085
10.320	-0.100
10.322	-0.090
10.324	-0.105
10.326	-0.100
10.328	-0.090
10.330	-0.075
10.332	-0.065
10.334	-0.060
10.336	-0.065
10.338	-0.075
10.340	-0.090
10.342	-0.095
10.344	-0.095
10.346	-0.095
10.348	-0.080
10.350	-0.075
10.352	-0.075
10.354	-0.055
10.356	-0.055
10.358	-0.065
10.360	-0.075
10.362	-0.080
10.364	-0.085
10.366	-0.085
10.368	-0.055
10.370	-0.040
10.372	-0.050
10.374	-0.055
10.376	-0.050
10.378	-0.055
10.380	-0.065
10.382	-0.065
10.384	-0.060
10.386	-0.060
10.388	-0.035
10.390	-0.025
10.392	-0.030
10.394	-0.035
10.396	-0.040
10.398	-0.035
10.400	-0.025
10.402	-0.035
10.404	-0.040
10.406	-0.030
10.408	-0.025
10.410	-0.005
10.412	0.005
10.414	0.025
10.416	0.030
10.418	0.010
10.420	0.010
10.422	0.010
10.424	0.015
10.426	0.020
10.428	0.045
10.430	0.060
10.432	0.065
10.434	0.080
10.436	0.080
10.438	0.080
10.440	0.060
10.442	0.070
10.444	0.080
10.446	0.085
10.448	0.090
10.450	0.110
10.452	0.120
10.454	0.120
10.456	0.120
10.458	0.115
10.460	0.110
10.462	0.105
10.464	0.085
10.466	0.085
10.468	0.090
10.470	0.095
10.472	0.110
10.474	0.100
10.476	0.100
10.478	0.075
10.480	0.055
10.482	0.035
10.484	0.030
10.486	0.030
10.488	0.025
10.490	0.030
10.492	0.040
10.494	0.025
10.496	0.015
10.498	-0.020
10.500	-0.025
10.502	-0.050
10.504	-0.065
10.506	-0.065
10.508	-0.050
10.510	-0.040
10.512	-0.040
10.514	-0.045
10.516	-0.065
10.518	-0.090
10.520	-0.120
10.522	-0.110
10.524	-0.130
10.526	-0.135
10.528	-0.140
10.530	-0.140
10.532	-0.130
10.534	-0.110
10.536	-0.125
10.538	-0.140
10.540	-0.150
10.542	-0.150
10.544	-0.165
10.546	-0.150
10.548	-0.145
10.550	-0.145
10.552	-0.135
10.554	-0.125
10.556	-0.140
10.558	-0.155
10.560	-0.160
10.562	-0.170
10.564	-0.160
10.566	-0.165
10.568	-0.155
10.570	-0.145
10.572	-0.150
10.574	-0.120
10.576	-0.135
10.578	-0.130
10.580	-0.145
10.582	-0.160
10.584	-0.170
10.586	-0.155
10.588	-0.145
10.590	-0.135
10.592	-0.130
10.594	-0.115
10.596	-0.135
10.598	-0.150
10.600	-0.155
10.602	-0.160
10.604	-0.165
10.606	-0.145
10.608	-0.125
10.610	-0.115
10.612	-0.105
10.614	-0.100
10.616	-0.110
10.618	-0.125
10.620	-0.135
10.622	-0.165
10.624	-0.165
10.626	-0.150
10.628	-0.140
10.630	-0.145
10.632	-0.140
10.634	-0.135
10.636	-0.125
10.638	-0.145
10.640	-0.155
10.642	-0.150
10.644	-0.150
10.646	-0.140
10.648	-0.130
10.650	-0.125
10.652	-0.120
10.654	-0.115
10.656	-0.140
10.658	-0.135
10.660	-0.130
10.662	-0.155
10.664	-0.160
10.666	-0.155
10.668	-0.150
10.670	-0.145
10.672	-0.140
10.674	-0.130
10.676	-0.145
10.678	-0.145
10.680	-0.155
10.682	-0.160
10.684	-0.160
10.686	-0.150
10.688	-0.135
10.690	-0.130
10.692	-0.135
10.694	-0.145
10.696	-0.160
10.698	-0.165
10.700	-0.160
10.702	-0.170
10.704	-0.170
10.706	-0.155
10.708	-0.140
10.710	-0.130
10.712	-0.140
10.714	-0.150
10.716	-0.155
10.718	-0.160
10.720	-0.165
10.722	-0.180
10.724	-0.185
10.726	-0.165
10.728	-0.160
10.730	-0.155
10.732	-0.140
10.734	-0.145
10.736	-0.155
10.738	-0.170
10.740	-0.165
10.742	-0.180
10.744	-0.160
10.746	-0.155
10.748	-0.140
10.750	-0.145
10.752	-0.135
10.754	-0.160
10.756	-0.170
10.758	-0.190
10.760	-0.215
10.762	-0.210
10.764	-0.200
10.766	-0.170
10.768	-0.150
10.770	-0.140
10.772	-0.150
10.774	-0.155
10.776	-0.155
10.778	-0.180
10.780	-0.185
10.782	-0.190
10.784	-0.190
10.786	-0.175
10.788	-0.155
10.790	-0.150
10.792	-0.145
10.794	-0.150
10.796	-0.160
10.798	-0.165
10.800	-0.170
10.802	-0.160
10.804	-0.160
10.806	-0.150
10.808	-0.145
10.810	-0.135
10.812	-0.125
10.814	-0.140
10.816	-0.145
10.818	-0.150
10.820	-0.160
10.822	-0.170
10.824	-0.150
10.826	-0.135
10.828	-0.105
10.830	-0.100
10.832	-0.095
10.834	-0.090
10.836	-0.105
10.838	-0.125
10.840	-0.125
10.842	-0.125
10.844	-0.105
10.846	-0.090
10.848	-0.085
10.850	-0.110
10.852	-0.100
10.854	-0.115
10.856	-0.120
10.858	-0.135
10.860	-0.145
10.862	-0.155
10.864	-0.140
10.866	-0.140
10.868	-0.145
10.870	-0.155
10.872	-0.160
10.874	-0.175
10.876	-0.170
10.878	-0.180
10.880	-0.175
10.882	-0.175
10.884	-0.170
10.886	-0.170
10.888	-0.150
10.890	-0.155
10.892	-0.155
10.894	-0.160
10.896	-0.175
10.898	-0.180
10.900	-0.195
10.902	-0.195
10.904	-0.185
10.906	-0.180
10.908	-0.175
10.910	-0.165
10.912	-0.180
10.914	-0.195
10.916	-0.205
10.918	-0.200
10.920	-0.195
10.922	-0.205
10.924	-0.180
10.926	-0.170
10.928	-0.170
10.930	-0.165
10.932	-0.155
10.934	-0.180
10.936	-0.190
10.938	-0.210
10.940	-0.210
10.942	-0.210
10.944	-0.215
10.946	-0.185
10.948	-0.185
10.950	-0.170
10.952	-0.160
10.954	-0.160
10.956	-0.200
10.958	-0.235
10.960	-0.230
10.962	-0.245
10.964	-0.240
10.966	-0.245
10.968	-0.235
10.970	-0.205
10.972	-0.175
10.974	-0.160
10.976	-0.090
10.978	-0.030
10.980	0.005
10.982	0.080
10.984	0.195
10.986	0.305
10.988	0.435
10.990	0.515
10.992	0.520
10.994	0.505
10.996	0.440
10.998	0.385
11.000	0.310
11.002	0.215
11.004	0.125
11.006	0.035
11.008	-0.085
11.010	-0.180
11.012	-0.255
11.014	-0.300
11.016	-0.285
11.018	-0.285
11.020	-0.280
11.022	-0.265
11.024	-0.225
11.026	-0.200
11.028	-0.165
11.030	-0.150
11.032	-0.155
11.034	-0.155
11.036	-0.170
11.038	-0.185
11.040	-0.195
11.042	-0.175
11.044	-0.155
11.046	-0.155
11.048	-0.150
11.050	-0.155
11.052	-0.155
11.054	-0.170
11.056	-0.150
11.058	-0.145
11.060	-0.155
11.062	-0.155
11.064	-0.150
11.066	-0.140
11.068	-0.125
11.070	-0.105
11.072	-0.130
11.074	-0.150
11.076	-0.135
11.078	-0.150
11.080	-0.160
11.082	-0.150
11.084	-0.145
11.086	-0.125
11.088	-0.115
11.090	-0.105
11.092	-0.110
11.094	-0.110
11.096	-0.120
11.098	-0.135
11.100	-0.125
11.102	-0.115
11.104	-0.105
11.106	-0.110
11.108	-0.115
11.110	-0.110
11.112	-0.115
11.114	-0.130
11.116	-0.120
11.118	-0.120
11.120	-0.140
11.122	-0.140
11.124	-0.120
11.126	-0.105
11.128	-0.085
11.130	-0.085
11.132	-0.080
11.134	-0.085
11.136	-0.090
11.138	-0.100
11.140	-0.090
11.142	-0.095
11.144	-0.080
11.146	-0.065
11.148	-0.060
11.150	-0.035
11.152	-0.045
11.154	-0.060
11.156	-0.055
11.158	-0.050
11.160	-0.050
11.162	-0.040
11.164	-0.030
11.166	-0.020
11.168	-0.010
11.170	0.005
11.172	0.010
11.174	-0.020
11.176	-0.025
11.178	-0.015
11.180	-0.005
11.182	0.010
11.184	0.030
11.186	0.045
11.188	0.050
11.190	0.055
11.192	0.060
11.194	0.055
11.196	0.055
11.198	0.055
11.200	0.055
11.202	0.070
11.204	0.085
11.206	0.095
11.208	0.100
11.210	0.115
11.212	0.110
11.214	0.095
11.216	0.095
11.218	0.075
11.220	0.065
11.222	0.075
11.224	0.120
11.226	0.085
11.228	0.095
11.230	0.110
11.232	0.095
11.234	0.075
11.236	0.055
11.238	0.040
11.240	0.035
11.242	0.020
11.244	0.035
11.246	0.035
11.248	0.025
11.250	0.035
11.252	0.000
11.254	-0.030
11.256	-0.030
11.258	-0.035
11.260	-0.050
11.262	-0.070
11.264	-0.070
11.266	-0.070
11.268	-0.060
11.270	-0.075
11.272	-0.100
11.274	-0.110
11.276	-0.125
11.278	-0.145
11.280	-0.155
11.282	-0.155
11.284	-0.135
11.286	-0.135
11.288	-0.130
11.290	-0.115
11.292	-0.145
11.294	-0.145
11.296	-0.145
11.298	-0.165
11.300	-0.160
11.302	-0.150
11.304	-0.155
11.306	-0.140
11.308	-0.150
11.310	-0.150
11.312	-0.175
11.314	-0.170
11.316	-0.170
11.318	-0.170
11.320	-0.165
11.322	-0.165
11.324	-0.155
11.326	-0.155
11.328	-0.145
11.330	-0.145
11.332	-0.170
11.334	-0.160
11.336	-0.165
11.338	-0.165
11.340	-0.155
11.342	-0.150
11.344	-0.150
11.346	-0.135
11.348	-0.135
11.350	-0.135
11.352	-0.155
11.354	-0.170
11.356	-0.170
11.358	-0.155
11.360	-0.150
11.362	-0.150
11.364	-0.145
11.366	-0.140
11.368	-0.135
11.370	-0.150
11.372	-0.155
11.374	-0.165
11.376	-0.160
11.378	-0.165
11.380	-0.155
11.382	-0.150
11.384	-0.140
11.386	-0.130
11.388	-0.120
11.390	-0.135
11.392	-0.150
11.394	-0.155
11.396	-0.160
11.398	-0.160
11.400	-0.145
11.402	-0.145
11.404	-0.135
11.406	-0.135
11.408	-0.120
11.410	-0.135
11.412	-0.145
11.414	-0.140
11.416	-0.145
11.418	-0.160
11.420	-0.150
11.422	-0.145
11.424	-0.135
11.426	-0.135
11.428	-0.125
11.430	-0.140
11.432	-0.155
11.434	-0.150
11.436	-0.155
11.438	-0.165
11.440	-0.150
11.442	-0.150
11.444	-0.140
11.446	-0.140
11.448	-0.135
11.450	-0.140
11.452	-0.155
11.454	-0.165
11.456	-0.160
11.458	-0.180
11.460	-0.170
11.462	-0.160
11.464	-0.165
11.466	-0.130
11.468	-0.140
11.470	-0.145
11.472	-0.155
11.474	-0.155
11.476	-0.165
11.478	-0.170
11.480	-0.155
11.482	-0.145
11.484	-0.130
11.486	-0.130
11.488	-0.125
11.490	-0.145
11.492	-0.145
11.494	-0.140
11.496	-0.155
11.498	-0.160
11.500	-0.155
11.502	-0.155
11.504	-0.155
11.506	-0.135
11.508	-0.130
11.510	-0.145
11.512	-0.160
11.514	-0.165
11.516	-0.185
11.518	-0.185
11.520	-0.155
11.522	-0.155
11.524	-0.150
11.526	-0.135
11.528	-0.135
11.530	-0.135
11.532	-0.135
11.534	-0.140
11.536	-0.155
11.538	-0.150
11.540	-0.140
11.542	-0.125
11.544	-0.120
11.546	-0.120
11.548	-0.125
11.550	-0.145
11.552	-0.135
11.554	-0.150
11.556	-0.140
11.558	-0.155
11.560	-0.130
11.562	-0.125
11.564	-0.110
11.566	-0.095
11.568	-0.085
11.570	-0.100
11.572	-0.100
11.574	-0.105
11.576	-0.100
11.578	-0.105
11.580	-0.095
11.582	-0.080
11.584	-0.070
11.586	-0.070
11.588	-0.080
11.590	-0.090
11.592	-0.115
11.594	-0.135
11.596	-0.145
11.598	-0.155
11.600	-0.135
11.602	-0.130
11.604	-0.150
11.606	-0.140
11.608	-0.150
11.610	-0.155
11.612	-0.165
11.614	-0.170
11.616	-0.175
11.618	-0.175
11.620	-0.155
11.622	-0.150
11.624	-0.145
11.626	-0.155
11.628	-0.145
11.630	-0.165
11.632	-0.180
11.634	-0.170
11.636	-0.180
11.638	-0.175
11.640	-0.160
11.642	-0.160
11.644	-0.160
11.646	-0.155
11.648	-0.150
11.650	-0.160
11.652	-0.160
11.654	-0.140
11.656	-0.130
11.658	-0.110
11.660	-0.085
11.662	-0.075
11.664	-0.065
11.666	-0.055
11.668	-0.060
11.670	-0.065
11.672	-0.065
11.674	-0.070
11.676	-0.070
11.678	-0.050
11.680	-0.040
11.682	-0.030
11.684	-0.025
11.686	-0.025
11.688	-0.040
11.690	-0.045
11.692	-0.060
11.694	-0.075
11.696	-0.090
11.698	-0.070
11.700	-0.070
11.702	-0.070
11.704	-0.070
11.706	-0.040
11.708	0.005
11.710	0.030
11.712	0.070
11.714	0.110
11.716	0.150
11.718	0.200
11.720	0.275
11.722	0.370
11.724	0.485
11.726	0.580
11.728	0.610
11.730	0.570
11.732	0.505
11.734	0.440
11.736	0.380
11.738	0.340
11.740	0.285
11.742	0.200
11.744	0.075
11.746	-0.020
11.748	-0.110
11.750	-0.155
11.752	-0.150
11.754	-0.125
11.756	-0.110
11.758	-0.090
11.760	-0.050
11.762	-0.020
11.764	0.005
11.766	0.025
11.768	0.020
11.770	0.000
11.772	-0.010
11.774	-0.020
11.776	-0.010
11.778	0.000
11.780	0.000
11.782	0.000
11.784	0.000
11.786	-0.005
11.788	-0.010
11.790	-0.015
11.792	-0.005
11.794	-0.015
11.796	-0.005
11.798	0.005
11.800	0.005
11.802	0.020
11.804	0.030
11.806	0.040
11.808	0.015
11.810	-0.005
11.812	-0.015
11.814	-0.020
11.816	-0.015
11.818	0.000
11.820	0.020
11.822	0.020
11.824	0.035
11.826	0.035
11.828	0.020
11.830	0.010
11.832	0.005
11.834	0.000
11.836	0.000
11.838	0.025
11.840	0.040
11.842	0.025
11.844	0.040
11.846	0.055
11.848	0.030
11.850	0.020
11.852	0.025
11.854	0.015
11.856	0.010
11.858	0.010
11.860	0.025
11.862	0.030
11.864	0.040
11.866	0.045
11.868	0.040
11.870	0.030
11.872	0.020
11.874	0.025
11.876	0.025
11.878	0.035
11.880	0.055
11.882	0.065
11.884	0.070
11.886	0.065
11.888	0.055
11.890	0.040
11.892	0.045
11.894	0.050
11.896	0.045
11.898	0.060
11.900	0.065
11.902	0.070
11.904	0.085
11.906	0.090
11.908	0.080
11.910	0.070
11.912	0.070
11.914	0.075
11.916	0.085
11.918	0.100
11.920	0.115
11.922	0.120
11.924	0.130
11.926	0.145
11.928	0.130
11.930	0.115
11.932	0.115
11.934	0.110
11.936	0.110
11.938	0.130
11.940	0.140
11.942	0.160
11.944	0.170
11.946	0.170
11.948	0.150
11.950	0.125
11.952	0.130
11.954	0.125
11.956	0.140
11.958	0.145
11.960	0.145
11.962	0.135
11.964	0.140
11.966	0.130
11.968	0.110
11.970	0.100
11.972	0.080
11.974	0.055
11.976	0.070
11.978	0.085
11.980	0.080
11.982	0.060
11.984	0.075
11.986	0.060
11.988	0.050
11.990	0.040
11.992	0.015
11.994	-0.005
11.996	0.005
11.998	-0.010
12.000	-0.005
12.002	-0.015
12.004	-0.015
12.006	-0.030
12.008	-0.045
12.010	-0.040
12.012	-0.060
12.014	-0.070
12.016	-0.080
12.018	-0.075
12.020	-0.070
12.022	-0.065
12.024	-0.070
12.026	-0.070
12.028	-0.070
12.030	-0.085
12.032	-0.090
12.034	-0.105
12.036	-0.100
12.038	-0.105
12.040	-0.095
12.042	-0.075
12.044	-0.085
12.046	-0.100
12.048	-0.115
12.050	-0.120
12.052	-0.115
12.054	-0.130
12.056	-0.115
12.058	-0.105
12.060	-0.105
12.062	-0.095
12.064	-0.090
12.066	-0.110
12.068	-0.145
12.070	-0.125
12.072	-0.130
12.074	-0.135
12.076	-0.125
12.078	-0.120
12.080	-0.100
12.082	-0.080
12.084	-0.090
12.086	-0.110
12.088	-0.140
12.090	-0.130
12.092	-0.120
12.094	-0.135
12.096	-0.130
12.098	-0.115
12.100	-0.120
12.102	-0.115
12.104	-0.105
12.106	-0.125
12.108	-0.120
12.110	-0.115
12.112	-0.125
12.114	-0.145
12.116	-0.130
12.118	-0.120
12.120	-0.115
12.122	-0.095
12.124	-0.100
12.126	-0.115
12.128	-0.125
12.130	-0.130
12.132	-0.130
12.134	-0.135
12.136	-0.110
12.138	-0.100
12.140	-0.115
12.142	-0.110
12.144	-0.110
12.146	-0.120
12.148	-0.130
12.150	-0.130
12.152	-0.130
12.154	-0.150
12.156	-0.145
12.158	-0.100
12.160	-0.100
12.162	-0.095
12.164	-0.110
12.166	-0.130
12.168	-0.140
12.170	-0.150
12.172	-0.140
12.174	-0.150
12.176	-0.140
12.178	-0.135
12.180	-0.120
12.182	-0.115
12.184	-0.115
12.186	-0.115
12.188	-0.135
12.190	-0.150
12.192	-0.150
12.194	-0.165
12.196	-0.150
12.198	-0.145
12.200	-0.125
12.202	-0.125
12.204	-0.135
12.206	-0.155
12.208	-0.160
12.210	-0.160
12.212	-0.155
12.214	-0.160
12.216	-0.140
12.218	-0.130
12.220	-0.135
12.222	-0.120
12.224	-0.135
12.226	-0.155
12.228	-0.140
12.230	-0.145
12.232	-0.165
12.234	-0.160
12.236	-0.150
12.238	-0.140
12.240	-0.125
12.242	-0.140
12.244	-0.130
12.246	-0.150
12.248	-0.140
12.250	-0.140
12.252	-0.150
12.254	-0.140
12.256	-0.125
12.258	-0.120
12.260	-0.105
12.262	-0.095
12.264	-0.095
12.266	-0.120
12.268	-0.135
12.270	-0.135
12.272	-0.145
12.274	-0.145
12.276	-0.125
12.278	-0.110
12.280	-0.115
12.282	-0.090
12.284	-0.070
12.286	-0.095
12.288	-0.090
12.290	-0.095
12.292	-0.110
12.294	-0.095
12.296	-0.095
12.298	-0.085
12.300	-0.085
12.302	-0.070
12.304	-0.065
12.306	-0.095
12.308	-0.105
12.310	-0.120
12.312	-0.125
12.314	-0.110
12.316	-0.115
12.318	-0.110
12.320	-0.115
12.322	-0.135
12.324	-0.140
12.326	-0.150
12.328	-0.155
12.330	-0.170
12.332	-0.165
12.334	-0.145
12.336	-0.135
12.338	-0.145
12.340	-0.140
12.342	-0.130
12.344	-0.150
12.346	-0.170
12.348	-0.180
12.350	-0.195
12.352	-0.205
12.354	-0.185
12.356	-0.170
12.358	-0.150
12.360	-0.145
12.362	-0.160
12.364	-0.165
12.366	-0.170
12.368	-0.175
12.370	-0.190
12.372	-0.195
12.374	-0.185
12.376	-0.185
12.378	-0.170
12.380	-0.170
12.382	-0.165
12.384	-0.165
12.386	-0.180
12.388	-0.195
12.390	-0.190
12.392	-0.195
12.394	-0.185
12.396	-0.175
12.398	-0.170
12.400	-0.165
12.402	-0.165
12.404	-0.175
12.406	-0.180
12.408	-0.190
12.410	-0.200
12.412	-0.210
12.414	-0.190
12.416	-0.210
12.418	-0.215
12.420	-0.195
12.422	-0.205
12.424	-0.205
12.426	-0.180
12.428	-0.150
12.430	-0.110
12.432	-0.050
12.434	0.005
12.436	0.045
12.438	0.100
12.440	0.175
12.442	0.275
12.444	0.350
12.446	0.435
12.448	0.420
12.450	0.380
12.452	0.315
12.454	0.255
12.456	0.205
12.458	0.150
12.460	0.070
12.462	-0.020
12.464	-0.130
12.466	-0.230
12.468	-0.315
12.470	-0.330
12.472	-0.295
12.474	-0.260
12.476	-0.220
12.478	-0.190
12.480	-0.165
12.482	-0.170
12.484	-0.170
12.486	-0.170
12.488	-0.175
12.490	-0.175
12.492	-0.180
12.494	-0.155
12.496	-0.140
12.498	-0.135
12.500	-0.140
12.502	-0.160
12.504	-0.150
12.506	-0.160
12.508	-0.165
12.510	-0.170
12.512	-0.165
12.514	-0.150
12.516	-0.145
12.518	-0.135
12.520	-0.125
12.522	-0.130
12.524	-0.135
12.526	-0.155
12.528	-0.160
12.530	-0.165
12.532	-0.150
12.534	-0.140
12.536	-0.130
12.538	-0.125
12.540	-0.110
12.542	-0.110
12.544	-0.115
12.546	-0.140
12.548	-0.145
12.550	-0.140
12.552	-0.135
12.554	-0.125
12.556	-0.120
12.558	-0.120
12.560	-0.105
12.562	-0.110
12.564	-0.120
12.566	-0.120
12.568	-0.125
12.570	-0.120
12.572	-0.120
12.574	-0.115
12.576	-0.105
12.578	-0.090
12.580	-0.085
12.582	-0.095
12.584	-0.100
12.586	-0.095
12.588	-0.100
12.590	-0.105
12.592	-0.075
12.594	-0.080
12.596	-0.065
12.598	-0.065
12.600	-0.050
12.602	-0.065
12.604	-0.065
12.606	-0.070
12.608	-0.055
12.610	-0.075
12.612	-0.065
12.614	-0.055
12.616	-0.045
12.618	-0.040
12.620	-0.025
12.622	-0.025
12.624	-0.025
12.626	-0.025
12.628	-0.030
12.630	-0.025
12.632	-0.015
12.634	0.005
12.636	0.005
12.638	0.015
12.640	0.015
12.642	0.025
12.644	0.015
12.646	0.020
12.648	0.030
12.650	0.010
12.652	0.035
12.654	0.045
12.656	0.060
12.658	0.070
12.660	0.080
12.662	0.070
12.664	0.070
12.666	0.070
12.668	0.065
12.670	0.035
12.672	0.060
12.674	0.065
12.676	0.075
12.678	0.060
12.680	0.090
12.682	0.070
12.684	0.050
12.686	0.045
12.688	0.040
12.690	0.040
12.692	0.040
12.694	0.050
12.696	0.030
12.698	0.030
12.700	0.025
12.702	0.005
12.704	-0.025
12.706	-0.035
12.708	-0.045
12.710	-0.060
12.712	-0.065
12.714	-0.060
12.716	-0.070
12.718	-0.070
12.720	-0.065
12.722	-0.090
12.724	-0.105
12.726	-0.115
12.728	-0.125
12.730	-0.135
12.732	-0.130
12.734	-0.130
12.736	-0.125
12.738	-0.120
12.740	-0.125
12.742	-0.145
12.744	-0.145
12.746	-0.155
12.748	-0.160
12.750	-0.165
12.752	-0.160
12.754	-0.145
12.756	-0.140
12.758	-0.135
12.760	-0.135
12.762	-0.145
12.764	-0.150
12.766	-0.160
12.768	-0.170
12.770	-0.170
12.772	-0.155
12.774	-0.150
12.776	-0.140
12.778	-0.135
12.780	-0.140
12.782	-0.145
12.784	-0.165
12.786	-0.160
12.788	-0.165
12.790	-0.160
12.792	-0.150
12.794	-0.140
12.796	-0.140
12.798	-0.140
12.800	-0.145
12.802	-0.155
12.804	-0.170
12.806	-0.180
12.808	-0.180
12.810	-0.165
12.812	-0.155
12.814	-0.150
12.816	-0.130
12.818	-0.120
12.820	-0.140
12.822	-0.140
12.824	-0.135
12.826	-0.145
12.828	-0.155
12.830	-0.150
12.832	-0.150
12.834	-0.150
12.836	-0.150
12.838	-0.130
12.840	-0.135
12.842	-0.130
12.844	-0.150
12.846	-0.150
12.848	-0.140
12.850	-0.145
12.852	-0.125
12.854	-0.120
12.856	-0.120
12.858	-0.120
12.860	-0.130
12.862	-0.125
12.864	-0.140
12.866	-0.155
12.868	-0.150
12.870	-0.155
12.872	-0.130
12.874	-0.120
12.876	-0.110
12.878	-0.110
12.880	-0.130
12.882	-0.140
12.884	-0.150
12.886	-0.160
12.888	-0.160
12.890	-0.150
12.892	-0.145
12.894	-0.130
12.896	-0.120
12.898	-0.115
12.900	-0.130
12.902	-0.140
12.904	-0.150
12.906	-0.155
12.908	-0.155
12.910	-0.140
12.912	-0.140
12.914	-0.125
12.916	-0.100
12.918	-0.110
12.920	-0.130
12.922	-0.145
12.924	-0.155
12.926	-0.160
12.928	-0.165
12.930	-0.160
12.932	-0.150
12.934	-0.145
12.936	-0.125
12.938	-0.135
12.940	-0.150
12.942	-0.160
12.944	-0.155
12.946	-0.160
12.948	-0.155
12.950	-0.130
12.952	-0.135
12.954	-0.130
12.956	-0.120
12.958	-0.110
12.960	-0.120
12.962	-0.135
12.964	-0.150
12.966	-0.140
12.968	-0.155
12.970	-0.150
12.972	-0.125
12.974	-0.125
12.976	-0.105
12.978	-0.110
12.980	-0.120
12.982	-0.120
12.984	-0.125
12.986	-0.130
12.988	-0.140
12.990	-0.120
12.992	-0.115
12.994	-0.115
12.996	-0.100
12.998	-0.105
13.000	-0.125
13.002	-0.135
13.004	-0.125
13.006	-0.120
13.008	-0.105
13.010	-0.090
13.012	-0.085
13.014	-0.065
13.016	-0.075
13.018	-0.080
13.020	-0.080
13.022	-0.085
13.024	-0.090
13.026	-0.095
13.028	-0.105
13.030	-0.085
13.032	-0.080
13.034	-0.085
13.036	-0.080
13.038	-0.080
13.040	-0.105
13.042	-0.120
13.044	-0.125
13.046	-0.145
13.048	-0.165
13.050	-0.165
13.052	-0.150
13.054	-0.150
13.056	-0.145
13.058	-0.135
13.060	-0.155
13.062	-0.160
13.064	-0.165
13.066	-0.160
13.068	-0.170
13.070	-0.165
13.072	-0.155
13.074	-0.160
13.076	-0.140
13.078	-0.155
13.080	-0.180
13.082	-0.185
13.084	-0.180
13.086	-0.190
13.088	-0.190
13.090	-0.175
13.092	-0.160
13.094	-0.155
13.096	-0.150
13.098	-0.140
13.100	-0.160
13.102	-0.170
13.104	-0.180
13.106	-0.195
13.108	-0.200
13.110	-0.170
13.112	-0.160
13.114	-0.160
13.116	-0.160
13.118	-0.160
13.120	-0.165
13.122	-0.170
13.124	-0.185
13.126	-0.180
13.128	-0.170
13.130	-0.155
13.132	-0.150
13.134	-0.160
13.136	-0.175
13.138	-0.185
13.140	-0.200
13.142	-0.205
13.144	-0.230
13.146	-0.250
13.148	-0.240
13.150	-0.215
13.152	-0.155
13.154	-0.110
13.156	-0.045
13.158	-0.020
13.160	0.035
13.162	0.095
13.164	0.160
13.166	0.235
13.168	0.350
13.170	0.470
13.172	0.565
13.174	0.565
13.176	0.520
13.178	0.450
13.180	0.365
13.182	0.270
13.184	0.175
13.186	0.085
13.188	-0.035
13.190	-0.140
13.192	-0.250
13.194	-0.280
13.196	-0.260
13.198	-0.240
13.200	-0.225
13.202	-0.205
13.204	-0.190
13.206	-0.170
13.208	-0.155
13.210	-0.145
13.212	-0.130
13.214	-0.125
13.216	-0.135
13.218	-0.130
13.220	-0.145
13.222	-0.160
13.224	-0.170
13.226	-0.165
13.228	-0.150
13.230	-0.135
13.232	-0.135
13.234	-0.130
13.236	-0.130
13.238	-0.135
13.240	-0.140
13.242	-0.145
13.244	-0.150
13.246	-0.155
13.248	-0.135
13.250	-0.115
13.252	-0.120
13.254	-0.120
13.256	-0.125
13.258	-0.130
13.260	-0.130
13.262	-0.125
13.264	-0.125
13.266	-0.130
13.268	-0.110
13.270	-0.105
13.272	-0.105
13.274	-0.090
13.276	-0.075
13.278	-0.090
13.280	-0.100
13.282	-0.100
13.284	-0.105
13.286	-0.115
13.288	-0.100
13.290	-0.095
13.292	-0.095
13.294	-0.080
13.296	-0.070
13.298	-0.085
13.300	-0.090
13.302	-0.095
13.304	-0.090
13.306	-0.090
13.308	-0.085
13.310	-0.070
13.312	-0.055
13.314	-0.050
13.316	-0.040
13.318	-0.060
13.320	-0.070
13.322	-0.075
13.324	-0.070
13.326	-0.065
13.328	-0.050
13.330	-0.050
13.332	-0.035
13.334	-0.035
13.336	-0.020
13.338	-0.035
13.340	-0.035
13.342	-0.030
13.344	-0.020
13.346	-0.015
13.348	-0.015
13.350	0.005
13.352	0.015
13.354	0.035
13.356	0.050
13.358	0.040
13.360	0.010
13.362	0.035
13.364	0.045
13.366	0.045
13.368	0.065
13.370	0.075
13.372	0.085
13.374	0.100
13.376	0.100
13.378	0.100
13.380	0.095
13.382	0.090
13.384	0.085
13.386	0.090
13.388	0.110
13.390	0.120
13.392	0.115
13.394	0.130
13.396	0.130
13.398	0.115
13.400	0.110
13.402	0.110
13.404	0.095
13.406	0.095
13.408	0.095
13.410	0.110
13.412	0.125
13.414	0.145
13.416	0.145
13.418	0.125
13.420	0.135
13.422	0.120
13.424	0.115
13.426	0.125
13.428	0.120
13.430	0.130
13.432	0.120
13.434	0.115
13.436	0.125
13.438	0.105
13.440	0.070
13.442	0.075
13.444	0.060
13.446	0.055
13.448	0.050
13.450	0.065
13.452	0.060
13.454	0.065
13.456	0.065
13.458	0.045
13.460	0.035
13.462	0.010
13.464	0.010
13.466	0.010
13.468	0.030
13.470	0.025
13.472	0.030
13.474	0.035
13.476	0.030
13.478	0.015
13.480	0.000
13.482	0.005
13.484	-0.005
13.486	-0.010
13.488	0.015
13.490	0.020
13.492	0.015
13.494	0.015
13.496	0.015
13.498	0.000
13.500	-0.010
13.502	-0.025
13.504	-0.010
13.506	0.010
13.508	0.010
13.510	0.020
13.512	0.020
13.514	0.020
13.516	0.025
13.518	0.020
13.520	-0.010
13.522	-0.020
13.524	-0.015
13.526	-0.010
13.528	0.000
13.530	0.010
13.532	0.005
13.534	0.030
13.536	0.020
13.538	0.010
13.540	-0.015
13.542	-0.020
13.544	-0.005
13.546	0.000
13.548	0.015
13.550	0.010
13.552	0.030
13.554	0.025
13.556	0.020
13.558	0.005
13.560	0.000
13.562	-0.010
13.564	-0.010
13.566	0.010
13.568	0.015
13.570	0.015
13.572	0.025
13.574	0.025
13.576	0.015
13.578	0.000
13.580	-0.010
13.582	-0.015
13.584	-0.010
13.586	-0.005
13.588	0.005
13.590	0.010
13.592	0.020
13.594	0.025
13.596	0.010
13.598	-0.005
13.600	-0.015
13.602	-0.035
13.604	-0.025
13.606	-0.010
13.608	0.005
13.610	0.005
13.612	0.000
13.614	0.005
13.616	-0.015
13.618	-0.025
13.620	-0.020
13.622	-0.030
13.624	-0.035
13.626	-0.015
13.628	-0.010
13.630	-0.010
13.632	-0.005
13.634	0.010
13.636	-0.010
13.638	-0.030
13.640	-0.045
13.642	-0.055
13.644	-0.035
13.646	-0.060
13.648	-0.040
13.650	-0.030
13.652	-0.035
13.654	-0.035
13.656	-0.045
13.658	-0.060
13.660	-0.070
13.662	-0.075
13.664	-0.070
13.666	-0.055
13.668	-0.040
13.670	-0.040
13.672	-0.035
13.674	-0.035
13.676	-0.050
13.678	-0.070
13.680	-0.075
13.682	-0.075
13.684	-0.095
13.686	-0.075
13.688	-0.060
13.690	-0.060
13.692	-0.060
13.694	-0.060
13.696	-0.075
13.698	-0.090
13.700	-0.095
13.702	-0.105
13.704	-0.100
13.706	-0.080
13.708	-0.075
13.710	-0.070
13.712	-0.055
13.714	-0.050
13.716	-0.065
13.718	-0.080
13.720	-0.085
13.722	-0.090
13.724	-0.095
13.726	-0.075
13.728	-0.060
13.730	-0.050
13.732	-0.045
13.734	-0.045
13.736	-0.065
13.738	-0.080
13.740	-0.085
13.742	-0.085
13.744	-0.085
13.746	-0.080
13.748	-0.060
13.750	-0.050
13.752	-0.050
13.754	-0.045
13.756	-0.045
13.758	-0.055
13.760	-0.055
13.762	-0.060
13.764	-0.050
13.766	-0.035
13.768	-0.025
13.770	-0.025
13.772	-0.020
13.774	-0.035
13.776	-0.040
13.778	-0.055
13.780	-0.080
13.782	-0.090
13.784	-0.090
13.786	-0.085
13.788	-0.090
13.790	-0.105
13.792	-0.110
13.794	-0.120
13.796	-0.120
13.798	-0.145
13.800	-0.140
13.802	-0.145
13.804	-0.135
13.806	-0.120
13.808	-0.110
13.810	-0.100
13.812	-0.110
13.814	-0.115
13.816	-0.120
13.818	-0.140
13.820	-0.150
13.822	-0.165
13.824	-0.155
13.826	-0.140
13.828	-0.135
13.830	-0.120
13.832	-0.125
13.834	-0.135
13.836	-0.145
13.838	-0.165
13.840	-0.165
13.842	-0.160
13.844	-0.145
13.846	-0.145
13.848	-0.140
13.850	-0.120
13.852	-0.110
13.854	-0.115
13.856	-0.130
13.858	-0.145
13.860	-0.150
13.862	-0.160
13.864	-0.155
13.866	-0.135
13.868	-0.145
13.870	-0.125
13.872	-0.120
13.874	-0.150
13.876	-0.170
13.878	-0.180
13.880	-0.180
13.882	-0.185
13.884	-0.175
13.886	-0.175
13.888	-0.195
13.890	-0.180
13.892	-0.165
13.894	-0.155
13.896	-0.125
13.898	-0.075
13.900	-0.025
13.902	0.025
13.904	0.110
13.906	0.205
13.908	0.295
13.910	0.420
13.912	0.545
13.914	0.630
13.916	0.600
13.918	0.570
13.920	0.485
13.922	0.420
13.924	0.355
13.926	0.265
13.928	0.180
13.930	0.050
13.932	-0.080
13.934	-0.205
13.936	-0.265
13.938	-0.265
13.940	-0.255
13.942	-0.240
13.944	-0.200
13.946	-0.165
13.948	-0.150
13.950	-0.120
13.952	-0.115
13.954	-0.110
13.956	-0.130
13.958	-0.135
13.960	-0.130
13.962	-0.135
13.964	-0.125
13.966	-0.115
13.968	-0.115
13.970	-0.115
13.972	-0.105
13.974	-0.110
13.976	-0.120
13.978	-0.130
13.980	-0.125
13.982	-0.135
13.984	-0.120
13.986	-0.120
13.988	-0.100
13.990	-0.100
13.992	-0.110
13.994	-0.100
13.996	-0.125
13.998	-0.125
14.000	-0.125
14.002	-0.120
14.004	-0.105
14.006	-0.100
14.008	-0.090
14.010	-0.080
14.012	-0.095
14.014	-0.095
14.016	-0.105
14.018	-0.105
14.020	-0.115
14.022	-0.115
14.024	-0.100
14.026	-0.095
14.028	-0.080
14.030	-0.065
14.032	-0.065
14.034	-0.080
14.036	-0.090
14.038	-0.095
14.040	-0.105
14.042	-0.100
14.044	-0.080
14.046	-0.075
14.048	-0.060
14.050	-0.050
14.052	-0.055
14.054	-0.065
14.056	-0.085
14.058	-0.080
14.060	-0.095
14.062	-0.070
14.064	-0.040
14.066	-0.035
14.068	-0.030
14.070	-0.025
14.072	-0.035
14.074	-0.035
14.076	-0.040
14.078	-0.035
14.080	-0.045
14.082	-0.030
14.084	-0.010
14.086	0.005
14.088	0.010
14.090	0.030
14.092	0.035
14.094	0.025
14.096	0.020
14.098	0.020
14.100	0.030
14.102	0.040
14.104	0.065
14.106	0.070
14.108	0.070
14.110	0.075
14.112	0.070
14.114	0.060
14.116	0.060
14.118	0.065
14.120	0.065
14.122	0.070
14.124	0.095
14.126	0.110
14.128	0.110
14.130	0.120
14.132	0.110
14.134	0.100
14.136	0.085
14.138	0.090
14.140	0.085
14.142	0.090
14.144	0.105
14.146	0.110
14.148	0.110
14.150	0.115
14.152	0.115
14.154	0.100
14.156	0.085
14.158	0.060
14.160	0.060
14.162	0.050
14.164	0.055
14.166	0.055
14.168	0.030
14.170	0.025
14.172	0.030
14.174	0.005
14.176	0.005
14.178	-0.015
14.180	-0.030
14.182	-0.025
14.184	-0.015
14.186	-0.020
14.188	-0.030
14.190	-0.030
14.192	-0.060
14.194	-0.075
14.196	-0.080
14.198	-0.100
14.200	-0.095
14.202	-0.100
14.204	-0.095
14.206	-0.095
14.208	-0.105
14.210	-0.105
14.212	-0.115
14.214	-0.135
14.216	-0.140
14.218	-0.145
14.220	-0.140
14.222	-0.135
14.224	-0.125
14.226	-0.115
14.228	-0.115
14.230	-0.115
14.232	-0.125
14.234	-0.135
14.236	-0.135
14.238	-0.150
14.240	-0.150
14.242	-0.130
14.244	-0.115
14.246	-0.120
14.248	-0.110
14.250	-0.120
14.252	-0.135
14.254	-0.150
14.256	-0.155
14.258	-0.155
14.260	-0.145
14.262	-0.135
14.264	-0.130
14.266	-0.125
14.268	-0.110
14.270	-0.110
14.272	-0.115
14.274	-0.125
14.276	-0.130
14.278	-0.140
14.280	-0.145
14.282	-0.140
14.284	-0.130
14.286	-0.125
14.288	-0.120
14.290	-0.115
14.292	-0.130
14.294	-0.120
14.296	-0.125
14.298	-0.135
14.300	-0.140
14.302	-0.135
14.304	-0.120
14.306	-0.115
14.308	-0.110
14.310	-0.115
14.312	-0.135
14.314	-0.140
14.316	-0.145
14.318	-0.145
14.320	-0.135
14.322	-0.115
14.324	-0.115
14.326	-0.105
14.328	-0.110
14.330	-0.120
14.332	-0.125
14.334	-0.135
14.336	-0.140
14.338	-0.160
14.340	-0.150
14.342	-0.130
14.344	-0.120
14.346	-0.110
14.348	-0.115
14.350	-0.130
14.352	-0.145
14.354	-0.130
14.356	-0.150
14.358	-0.160
14.360	-0.145
14.362	-0.135
14.364	-0.120
14.366	-0.125
14.368	-0.135
14.370	-0.135
14.372	-0.150
14.374	-0.145
14.376	-0.165
14.378	-0.165
14.380	-0.170
14.382	-0.145
14.384	-0.120
14.386	-0.130
14.388	-0.125
14.390	-0.140
14.392	-0.150
14.394	-0.160
14.396	-0.155
14.398	-0.150
14.400	-0.155
14.402	-0.140
14.404	-0.135
14.406	-0.140
14.408	-0.135
14.410	-0.150
14.412	-0.155
14.414	-0.165
14.416	-0.160
14.418	-0.175
14.420	-0.170
14.422	-0.165
14.424	-0.155
14.426	-0.140
14.428	-0.140
14.430	-0.155
14.432	-0.165
14.434	-0.160
14.436	-0.160
14.438	-0.175
14.440	-0.155
14.442	-0.160
14.444	-0.145
14.446	-0.135
14.448	-0.140
14.450	-0.155
14.452	-0.155
14.454	-0.160
14.456	-0.165
14.458	-0.175
14.460	-0.165
14.462	-0.155
14.464	-0.140
14.466	-0.125
14.468	-0.130
14.470	-0.140
14.472	-0.150
14.474	-0.155
14.476	-0.160
14.478	-0.180
14.480	-0.165
14.482	-0.155
14.484	-0.140
14.486	-0.140
14.488	-0.140
14.490	-0.150
14.492	-0.150
14.494	-0.135
14.496	-0.135
14.498	-0.160
14.500	-0.135
14.502	-0.125
14.504	-0.120
14.506	-0.100
14.508	-0.095
14.510	-0.110
14.512	-0.135
14.514	-0.135
14.516	-0.130
14.518	-0.125
14.520	-0.125
14.522	-0.115
14.524	-0.110
14.526	-0.110
14.528	-0.090
14.530	-0.100
14.532	-0.115
14.534	-0.110
14.536	-0.105
14.538	-0.100
14.540	-0.100
14.542	-0.090
14.544	-0.090
14.546	-0.075
14.548	-0.080
14.550	-0.070
14.552	-0.095
14.554	-0.105
14.556	-0.115
14.558	-0.125
14.560	-0.115
14.562	-0.115
14.564	-0.100
14.566	-0.090
14.568	-0.120
14.570	-0.150
14.572	-0.155
14.574	-0.170
14.576	-0.160
14.578	-0.165
14.580	-0.160
14.582	-0.135
14.584	-0.130
14.586	-0.125
14.588	-0.140
14.590	-0.150
14.592	-0.165
14.594	-0.170
14.596	-0.180
14.598	-0.180
14.600	-0.155
14.602	-0.150
14.604	-0.165
14.606	-0.155
14.608	-0.160
14.610	-0.160
14.612	-0.165
14.614	-0.185
14.616	-0.170
14.618	-0.185
14.620	-0.165
14.622	-0.145
14.624	-0.140
14.626	-0.130
14.628	-0.145
14.630	-0.170
14.632	-0.195
14.634	-0.195
14.636	-0.200
14.638	-0.205
14.640	-0.175
14.642	-0.165
14.644	-0.160
14.646	-0.160
14.648	-0.170
14.650	-0.175
14.652	-0.185
14.654	-0.195
14.656	-0.205
14.658	-0.215
14.660	-0.205
14.662	-0.190
14.664	-0.200
14.666	-0.200
14.668	-0.195
14.670	-0.190
14.672	-0.170
14.674	-0.125
14.676	-0.065
14.678	-0.010
14.680	0.075
14.682	0.145
14.684	0.215
14.686	0.320
14.688	0.445
14.690	0.535
14.692	0.550
14.694	0.540
14.696	0.480
14.698	0.430
14.700	0.365
14.702	0.285
14.704	0.195
14.706	0.110
14.708	-0.025
14.710	-0.155
14.712	-0.245
14.714	-0.300
14.716	-0.290
14.718	-0.260
14.720	-0.225
14.722	-0.200
14.724	-0.180
14.726	-0.150
14.728	-0.150
14.730	-0.145
14.732	-0.145
14.734	-0.140
14.736	-0.140
14.738	-0.130
14.740	-0.125
14.742	-0.120
14.744	-0.135
14.746	-0.115
14.748	-0.115
14.750	-0.135
14.752	-0.150
14.754	-0.145
14.756	-0.155
14.758	-0.140
14.760	-0.110
14.762	-0.115
14.764	-0.105
14.766	-0.105
14.768	-0.110
14.770	-0.110
14.772	-0.105
14.774	-0.110
14.776	-0.130
14.778	-0.125
14.780	-0.115
14.782	-0.100
14.784	-0.100
14.786	-0.100
14.788	-0.105
14.790	-0.110
14.792	-0.120
14.794	-0.120
14.796	-0.125
14.798	-0.095
14.800	-0.080
14.802	-0.085
14.804	-0.080
14.806	-0.075
14.808	-0.075
14.810	-0.085
14.812	-0.090
14.814	-0.090
14.816	-0.085
14.818	-0.070
14.820	-0.060
14.822	-0.055
14.824	-0.055
14.826	-0.045
14.828	-0.050
14.830	-0.065
14.832	-0.055
14.834	-0.080
14.836	-0.075
14.838	-0.050
14.840	-0.040
14.842	-0.040
14.844	-0.035
14.846	-0.040
14.848	-0.045
14.850	-0.045
14.852	-0.030
14.854	-0.040
14.856	-0.020
14.858	-0.010
14.860	0.000
14.862	0.000
14.864	0.005
14.866	0.005
14.868	-0.005
14.870	-0.005
14.872	0.005
14.874	-0.005
14.876	0.000
14.878	0.025
14.880	0.035
14.882	0.055
14.884	0.070
14.886	0.090
14.888	0.080
14.890	0.070
14.892	0.065
14.894	0.055
14.896	0.070
14.898	0.070
14.900	0.090
14.902	0.110
14.904	0.120
14.906	0.120
14.908	0.115
14.910	0.110
14.912	0.115
14.914	0.095
14.916	0.100
14.918	0.120
14.920	0.115
14.922	0.120
14.924	0.115
14.926	0.095
14.928	0.085
14.930	0.080
14.932	0.070
14.934	0.065
14.936	0.055
14.938	0.055
14.940	0.060
14.942	0.055
14.944	0.050
14.946	0.050
14.948	0.025
14.950	-0.005
14.952	-0.020
14.954	-0.030
14.956	-0.035
14.958	-0.030
14.960	-0.020
14.962	-0.020
14.964	-0.020
14.966	-0.045
14.968	-0.060
14.970	-0.070
14.972	-0.070
14.974	-0.095
14.976	-0.085
14.978	-0.085
14.980	-0.080
14.982	-0.080
14.984	-0.075
14.986	-0.090
14.988	-0.105
14.990	-0.115
14.992	-0.110
14.994	-0.115
14.996	-0.115
14.998	-0.130
15.000	-0.135
15.002	-0.135
15.004	-0.135
15.006	-0.140
15.008	-0.140
15.010	-0.140
15.012	-0.140
15.014	-0.145
15.016	-0.140
15.018	-0.125
15.020	-0.120
15.022	-0.120
15.024	-0.115
15.026	-0.120
15.028	-0.135
15.030	-0.130
15.032	-0.140
15.034	-0.150
15.036	-0.160
15.038	-0.120
15.040	-0.115
15.042	-0.110
15.044	-0.105
15.046	-0.120
15.048	-0.115
15.050	-0.130
15.052	-0.145
15.054	-0.135
15.056	-0.110
15.058	-0.095
15.060	-0.110
15.062	-0.115
15.064	-0.110
15.066	-0.110
15.068	-0.120
15.070	-0.125
15.072	-0.125
15.074	-0.130
15.076	-0.135
15.078	-0.120
15.080	-0.110
15.082	-0.100
15.084	-0.095
15.086	-0.105
15.088	-0.110
15.090	-0.105
15.092	-0.110
15.094	-0.115
15.096	-0.110
15.098	-0.100
15.100	-0.100
15.102	-0.110
15.104	-0.110
15.106	-0.110
15.108	-0.105
15.110	-0.110
15.112	-0.120
15.114	-0.135
15.116	-0.125
15.118	-0.100
15.120	-0.090
15.122	-0.085
15.124	-0.090
15.126	-0.100
15.128	-0.110
15.130	-0.110
15.132	-0.110
15.134	-0.115
15.136	-0.125
15.138	-0.110
15.140	-0.105
15.142	-0.100
15.144	-0.090
15.146	-0.105
15.148	-0.115
15.150	-0.120
15.152	-0.125
15.154	-0.120
15.156	-0.110
15.158	-0.100
15.160	-0.100
15.162	-0.085
15.164	-0.090
15.166	-0.100
15.168	-0.115
15.170	-0.115
15.172	-0.135
15.174	-0.125
15.176	-0.110
15.178	-0.100
15.180	-0.095
15.182	-0.090
15.184	-0.090
15.186	-0.070
15.188	-0.065
15.190	-0.065
15.192	-0.070
15.194	-0.055
15.196	-0.030
15.198	-0.035
15.200	-0.020
15.202	-0.010
15.204	-0.010
15.206	-0.015
15.208	-0.020
15.210	-0.025
15.212	-0.035
15.214	-0.020
15.216	-0.015
15.218	-0.010
15.220	-0.010
15.222	0.010
15.224	0.020
15.226	0.015
15.228	-0.010
15.230	-0.025
15.232	-0.020
15.234	-0.015
15.236	0.005
15.238	0.005
15.240	0.010
15.242	0.020
15.244	0.025
15.246	0.010
15.248	-0.005
15.250	-0.010
15.252	-0.020
15.254	-0.020
15.256	0.005
15.258	0.015
15.260	0.010
15.262	0.025
15.264	0.030
15.266	0.005
15.268	0.000
15.270	0.005
15.272	0.005
15.274	0.015
15.276	0.025
15.278	0.020
15.280	0.035
15.282	0.045
15.284	0.040
15.286	0.015
15.288	0.000
15.290	-0.005
15.292	-0.015
15.294	-0.005
15.296	0.035
15.298	0.040
15.300	0.055
15.302	0.070
15.304	0.085
15.306	0.055
15.308	0.045
15.310	0.040
15.312	0.020
15.314	0.015
15.316	0.040
15.318	0.060
15.320	0.060
15.322	0.065
15.324	0.065
15.326	0.055
15.328	0.055
15.330	0.040
15.332	0.030
15.334	0.025
15.336	0.025
15.338	0.020
15.340	0.025
15.342	0.020
15.344	0.000
15.346	-0.020
15.348	-0.030
15.350	-0.040
15.352	-0.040
15.354	-0.030
15.356	-0.010
15.358	-0.005
15.360	0.010
15.362	0.005
15.364	0.005
15.366	-0.010
15.368	-0.030
15.370	-0.040
15.372	-0.045
15.374	-0.045
15.376	-0.045
15.378	-0.045
15.380	-0.015
15.382	-0.005
15.384	-0.030
15.386	-0.045
15.388	-0.060
15.390	-0.065
15.392	-0.060
15.394	-0.055
15.396	-0.045
15.398	-0.030
15.400	-0.035
15.402	-0.035
15.404	-0.045
15.406	-0.045
15.408	-0.050
15.410	-0.050
15.412	-0.060
15.414	-0.065
15.416	-0.040
15.418	-0.045
15.420	-0.040
15.422	-0.030
15.424	-0.050
15.426	-0.060
15.428	-0.075
15.430	-0.095
15.432	-0.095
15.434	-0.080
15.436	-0.080
15.438	-0.075
15.440	-0.090
15.442	-0.095
15.444	-0.095
15.446	-0.075
15.448	-0.035
15.450	0.010
15.452	0.065
15.454	0.105
15.456	0.190
15.458	0.260
15.460	0.380
15.462	0.480
15.464	0.595
15.466	0.635
15.468	0.630
15.470	0.615
15.472	0.560
15.474	0.510
15.476	0.430
15.478	0.335
15.480	0.250
15.482	0.125
15.484	-0.025
15.486	-0.135
15.488	-0.200
15.490	-0.220
15.492	-0.195
15.494	-0.165
15.496	-0.125
15.498	-0.095
15.500	-0.070
15.502	-0.055
15.504	-0.050
15.506	-0.050
15.508	-0.070
15.510	-0.075
15.512	-0.080
15.514	-0.075
15.516	-0.070
15.518	-0.055
15.520	-0.055
15.522	-0.060
15.524	-0.070
15.526	-0.070
15.528	-0.060
15.530	-0.075
15.532	-0.080
15.534	-0.060
15.536	-0.050
15.538	-0.055
15.540	-0.045
15.542	-0.050
15.544	-0.070
15.546	-0.085
15.548	-0.080
15.550	-0.085
15.552	-0.080
15.554	-0.065
15.556	-0.035
15.558	-0.040
15.560	-0.040
15.562	-0.055
15.564	-0.065
15.566	-0.055
15.568	-0.070
15.570	-0.080
15.572	-0.065
15.574	-0.050
15.576	-0.040
15.578	-0.040
15.580	-0.015
15.582	-0.020
15.584	-0.035
15.586	-0.045
15.588	-0.050
15.590	-0.050
15.592	-0.035
15.594	-0.035
15.596	-0.030
15.598	-0.035
15.600	-0.010
15.602	-0.020
15.604	-0.040
15.606	-0.045
15.608	-0.050
15.610	-0.050
15.612	-0.040
15.614	-0.025
15.616	-0.005
15.618	-0.005
15.620	0.005
15.622	-0.005
15.624	-0.005
15.626	-0.015
15.628	-0.020
15.630	-0.015
15.632	-0.005
15.634	0.005
15.636	0.010
15.638	0.030
15.640	0.045
15.642	0.045
15.644	0.040
15.646	0.030
15.648	0.045
15.650	0.035
15.652	0.055
15.654	0.075
15.656	0.085
15.658	0.090
15.660	0.105
15.662	0.100
15.664	0.085
15.666	0.085
15.668	0.095
15.670	0.095
15.672	0.105
15.674	0.120
15.676	0.125
15.678	0.130
15.680	0.145
15.682	0.145
15.684	0.140
15.686	0.135
15.688	0.130
15.690	0.120
15.692	0.130
15.694	0.135
15.696	0.125
15.698	0.125
15.700	0.120
15.702	0.115
15.704	0.110
15.706	0.095
15.708	0.090
15.710	0.085
15.712	0.095
15.714	0.080
15.716	0.080
15.718	0.075
15.720	0.070
15.722	0.040
15.724	0.025
15.726	0.000
15.728	-0.005
15.730	-0.010
15.732	-0.015
15.734	-0.025
15.736	-0.020
15.738	-0.020
15.740	-0.020
15.742	-0.045
15.744	-0.070
15.746	-0.070
15.748	-0.085
15.750	-0.085
15.752	-0.090
15.754	-0.085
15.756	-0.080
15.758	-0.070
15.760	-0.075
15.762	-0.090
15.764	-0.115
15.766	-0.135
15.768	-0.140
15.770	-0.150
15.772	-0.130
15.774	-0.115
15.776	-0.125
15.778	-0.105
15.780	-0.110
15.782	-0.115
15.784	-0.125
15.786	-0.130
15.788	-0.145
15.790	-0.145
15.792	-0.140
15.794	-0.135
15.796	-0.120
15.798	-0.115
15.800	-0.110
15.802	-0.110
15.804	-0.130
15.806	-0.130
15.808	-0.135
15.810	-0.140
15.812	-0.125
15.814	-0.115
15.816	-0.115
15.818	-0.110
15.820	-0.125
15.822	-0.135
15.824	-0.140
15.826	-0.125
15.828	-0.135
15.830	-0.135
15.832	-0.120
15.834	-0.105
15.836	-0.110
15.838	-0.110
15.840	-0.115
15.842	-0.125
15.844	-0.130
15.846	-0.135
15.848	-0.135
15.850	-0.125
15.852	-0.120
15.854	-0.100
15.856	-0.105
15.858	-0.100
15.860	-0.110
15.862	-0.120
15.864	-0.135
15.866	-0.130
15.868	-0.125
15.870	-0.125
15.872	-0.120
15.874	-0.100
15.876	-0.110
15.878	-0.100
15.880	-0.105
15.882	-0.130
15.884	-0.130
15.886	-0.135
15.888	-0.135
15.890	-0.120
15.892	-0.110
15.894	-0.105
15.896	-0.105
15.898	-0.100
15.900	-0.115
15.902	-0.120
15.904	-0.130
15.906	-0.135
15.908	-0.140
15.910	-0.130
15.912	-0.125
15.914	-0.120
15.916	-0.130
15.918	-0.115
15.920	-0.130
15.922	-0.145
15.924	-0.135
15.926	-0.150
15.928	-0.155
15.930	-0.150
15.932	-0.135
15.934	-0.125
15.936	-0.115
15.938	-0.105
15.940	-0.120
15.942	-0.135
15.944	-0.150
15.946	-0.160
15.948	-0.160
15.950	-0.150
15.952	-0.140
15.954	-0.140
15.956	-0.130
15.958	-0.120
15.960	-0.125
15.962	-0.135
15.964	-0.135
15.966	-0.145
15.968	-0.165
15.970	-0.150
15.972	-0.145
15.974	-0.145
15.976	-0.135
15.978	-0.135
15.980	-0.150
15.982	-0.155
15.984	-0.155
15.986	-0.165
15.988	-0.170
15.990	-0.165
15.992	-0.150
15.994	-0.140
15.996	-0.140
15.998	-0.140
16.000	-0.150
16.002	-0.160
16.004	-0.175
16.006	-0.175
16.008	-0.180
16.010	-0.165
16.012	-0.155
16.014	-0.150
16.016	-0.130
16.018	-0.130
16.020	-0.150
16.022	-0.150
16.024	-0.165
16.026	-0.170
16.028	-0.170
16.030	-0.160
16.032	-0.145
16.034	-0.150
16.036	-0.145
16.038	-0.130
16.040	-0.140
16.042	-0.155
16.044	-0.155
16.046	-0.160
16.048	-0.175
16.050	-0.165
16.052	-0.150
16.054	-0.155
16.056	-0.150
16.058	-0.140
16.060	-0.145
16.062	-0.155
16.064	-0.145
16.066	-0.160
16.068	-0.150
16.070	-0.135
16.072	-0.130
16.074	-0.120
16.076	-0.120
16.078	-0.120
16.080	-0.130
16.082	-0.150
16.084	-0.155
16.086	-0.150
16.088	-0.145
16.090	-0.135
16.092	-0.115
16.094	-0.120
16.096	-0.120
16.098	-0.110
16.100	-0.110
16.102	-0.115
16.104	-0.110
16.106	-0.115
16.108	-0.105
16.110	-0.090
16.112	-0.090
16.114	-0.090
16.116	-0.080
16.118	-0.085
16.120	-0.095
16.122	-0.110
16.124	-0.105
16.126	-0.105
16.128	-0.090
16.130	-0.090
16.132	-0.085
16.134	-0.085
16.136	-0.095
16.138	-0.115
16.140	-0.125
16.142	-0.140
16.144	-0.140
16.146	-0.155
16.148	-0.155
16.150	-0.155
16.152	-0.150
16.154	-0.155
16.156	-0.145
16.158	-0.140
16.160	-0.140
16.162	-0.140
16.164	-0.155
16.166	-0.170
16.168	-0.175
16.170	-0.150
16.172	-0.150
16.174	-0.150
16.176	-0.135
16.178	-0.150
16.180	-0.160
16.182	-0.175
16.184	-0.185
16.186	-0.195
16.188	-0.185
16.190	-0.185
16.192	-0.165
16.194	-0.160
16.196	-0.165
16.198	-0.175
16.200	-0.175
16.202	-0.190
16.204	-0.185
16.206	-0.180
16.208	-0.175
16.210	-0.160
16.212	-0.160
16.214	-0.145
16.216	-0.135
16.218	-0.160
16.220	-0.175
16.222	-0.195
16.224	-0.205
16.226	-0.200
16.228	-0.195
16.230	-0.185
16.232	-0.185
16.234	-0.185
16.236	-0.175
16.238	-0.190
16.240	-0.215
16.242	-0.220
16.244	-0.235
16.246	-0.230
16.248	-0.195
16.250	-0.140
16.252	-0.075
16.254	-0.015
16.256	0.035
16.258	0.095
16.260	0.145
16.262	0.225
16.264	0.320
16.266	0.430
16.268	0.545
16.270	0.580
16.272	0.575
16.274	0.535
16.276	0.465
16.278	0.380
16.280	0.285
16.282	0.200
16.284	0.075
16.286	-0.055
16.288	-0.165
16.290	-0.240
16.292	-0.260
16.294	-0.250
16.296	-0.215
16.298	-0.210
16.300	-0.190
16.302	-0.180
16.304	-0.170
16.306	-0.175
16.308	-0.155
16.310	-0.125
16.312	-0.115
16.314	-0.135
16.316	-0.140
16.318	-0.145
16.320	-0.155
16.322	-0.150
16.324	-0.160
16.326	-0.165
16.328	-0.150
16.330	-0.140
16.332	-0.125
16.334	-0.125
16.336	-0.130
16.338	-0.130
16.340	-0.135
16.342	-0.150
16.344	-0.145
16.346	-0.155
16.348	-0.135
16.350	-0.125
16.352	-0.125
16.354	-0.110
16.356	-0.125
16.358	-0.125
16.360	-0.130
16.362	-0.130
16.364	-0.120
16.366	-0.125
16.368	-0.110
16.370	-0.100
16.372	-0.105
16.374	-0.095
16.376	-0.105
16.378	-0.110
16.380	-0.120
16.382	-0.115
16.384	-0.125
16.386	-0.120
16.388	-0.110
16.390	-0.105
16.392	-0.085
16.394	-0.080
16.396	-0.085
16.398	-0.095
16.400	-0.105
16.402	-0.105
16.404	-0.100
16.406	-0.100
16.408	-0.080
16.410	-0.080
16.412	-0.070
16.414	-0.065
16.416	-0.055
16.418	-0.065
16.420	-0.085
16.422	-0.090
16.424	-0.090
16.426	-0.080
16.428	-0.060
16.430	-0.035
16.432	-0.035
16.434	-0.030
16.436	-0.030
16.438	-0.045
16.440	-0.040
16.442	-0.045
16.444	-0.050
16.446	-0.035
16.448	-0.025
16.450	-0.015
16.452	0.010
16.454	0.015
16.456	0.020
16.458	0.015
16.460	0.005
16.462	0.015
16.464	0.020
16.466	0.015
16.468	0.060
16.470	0.050
16.472	0.070
16.474	0.070
16.476	0.070
16.478	0.050
16.480	0.050
16.482	0.075
16.484	0.075
16.486	0.090
16.488	0.090
16.490	0.100
16.492	0.095
16.494	0.115
16.496	0.105
16.498	0.100
16.500	0.080
16.502	0.090
16.504	0.075
16.506	0.080
16.508	0.075
16.510	0.085
16.512	0.085
16.514	0.080
16.516	0.065
16.518	0.050
16.520	0.030
16.522	0.010
16.524	0.005
16.526	-0.005
16.528	0.005
16.530	-0.005
16.532	-0.005
16.534	-0.010
16.536	-0.030
16.538	-0.045
16.540	-0.060
16.542	-0.075
16.544	-0.090
16.546	-0.085
16.548	-0.085
16.550	-0.080
16.552	-0.085
16.554	-0.080
16.556	-0.090
16.558	-0.105
16.560	-0.115
16.562	-0.130
16.564	-0.150
16.566	-0.140
16.568	-0.130
16.570	-0.120
16.572	-0.105
16.574	-0.105
16.576	-0.120
16.578	-0.125
16.580	-0.135
16.582	-0.145
16.584	-0.150
16.586	-0.150
16.588	-0.135
16.590	-0.130
16.592	-0.125
16.594	-0.125
16.596	-0.135
16.598	-0.150
16.600	-0.155
16.602	-0.160
16.604	-0.160
16.606	-0.135
16.608	-0.130
16.610	-0.130
16.612	-0.130
16.614	-0.140
16.616	-0.145
16.618	-0.150
16.620	-0.150
16.622	-0.155
16.624	-0.155
16.626	-0.140
16.628	-0.140
16.630	-0.130
16.632	-0.135
16.634	-0.135
16.636	-0.140
16.638	-0.135
16.640	-0.135
16.642	-0.155
16.644	-0.145
16.646	-0.125
16.648	-0.125
16.650	-0.125
16.652	-0.105
16.654	-0.115
16.656	-0.125
16.658	-0.120
16.660	-0.130
16.662	-0.135
16.664	-0.140
16.666	-0.120
16.668	-0.105
16.670	-0.105
16.672	-0.095
16.674	-0.105
16.676	-0.120
16.678	-0.135
16.680	-0.145
16.682	-0.150
16.684	-0.140
16.686	-0.125
16.688	-0.120
16.690	-0.115
16.692	-0.105
16.694	-0.120
16.696	-0.125
16.698	-0.130
16.700	-0.140
16.702	-0.145
16.704	-0.130
16.706	-0.115
16.708	-0.115
16.710	-0.120
16.712	-0.110
16.714	-0.120
16.716	-0.115
16.718	-0.130
16.720	-0.140
16.722	-0.150
16.724	-0.140
16.726	-0.125
16.728	-0.125
16.730	-0.110
16.732	-0.110
16.734	-0.115
16.736	-0.125
16.738	-0.130
16.740	-0.145
16.742	-0.155
16.744	-0.145
16.746	-0.135
16.748	-0.135
16.750	-0.125
16.752	-0.115
16.754	-0.120
16.756	-0.130
16.758	-0.140
16.760	-0.145
16.762	-0.155
16.764	-0.150
16.766	-0.145
16.768	-0.135
16.770	-0.130
16.772	-0.120
16.774	-0.135
16.776	-0.150
16.778	-0.145
16.780	-0.140
16.782	-0.155
16.784	-0.140
16.786	-0.125
16.788	-0.120
16.790	-0.120
16.792	-0.120
16.794	-0.135
16.796	-0.150
16.798	-0.150
16.800	-0.145
16.802	-0.160
16.804	-0.155
16.806	-0.150
16.808	-0.140
16.810	-0.140
16.812	-0.125
16.814	-0.125
16.816	-0.130
16.818	-0.140
16.820	-0.150
16.822	-0.150
16.824	-0.150
16.826	-0.145
16.828	-0.140
16.830	-0.130
16.832	-0.125
16.834	-0.130
16.836	-0.145
16.838	-0.145
16.840	-0.155
16.842	-0.170
16.844	-0.150
16.846	-0.140
16.848	-0.135
16.850	-0.125
16.852	-0.125
16.854	-0.145
16.856	-0.135
16.858	-0.155
16.860	-0.155
16.862	-0.170
16.864	-0.155
16.866	-0.135
16.868	-0.120
16.870	-0.125
16.872	-0.115
16.874	-0.135
16.876	-0.155
16.878	-0.155
16.880	-0.155
16.882	-0.155
16.884	-0.135
16.886	-0.130
16.888	-0.110
16.890	-0.090
16.892	-0.085
16.894	-0.100
16.896	-0.130
16.898	-0.135
16.900	-0.125
16.902	-0.125
16.904	-0.110
16.906	-0.105
16.908	-0.105
16.910	-0.105
16.912	-0.115
16.914	-0.115
16.916	-0.120
16.918	-0.110
16.920	-0.105
16.922	-0.095
16.924	-0.080
16.926	-0.065
16.928	-0.060
16.930	-0.065
16.932	-0.065
16.934	-0.070
16.936	-0.075
16.938	-0.080
16.940	-0.090
16.942	-0.090
16.944	-0.075
16.946	-0.075
16.948	-0.075
16.950	-0.070
16.952	-0.080
16.954	-0.095
16.956	-0.110
16.958	-0.120
16.960	-0.140
16.962	-0.145
16.964	-0.130
16.966	-0.125
16.968	-0.120
16.970	-0.110
16.972	-0.115
16.974	-0.115
16.976	-0.135
16.978	-0.140
16.980	-0.150
16.982	-0.155
16.984	-0.145
16.986	-0.125
16.988	-0.115
16.990	-0.115
16.992	-0.125
16.994	-0.145
16.996	-0.145
16.998	-0.145
17.000	-0.165
17.002	-0.170
17.004	-0.150
17.006	-0.135
17.008	-0.120
17.010	-0.130
17.012	-0.135
17.014	-0.150
17.016	-0.170
17.018	-0.170
17.020	-0.170
17.022	-0.170
17.024	-0.160
17.026	-0.140
17.028	-0.125
17.030	-0.115
17.032	-0.135
17.034	-0.150
17.036	-0.155
17.038	-0.170
17.040	-0.170
17.042	-0.170
17.044	-0.155
17.046	-0.155
17.048	-0.150
17.050	-0.155
17.052	-0.165
17.054	-0.180
17.056	-0.190
17.058	-0.210
17.060	-0.220
17.062	-0.200
17.064	-0.185
17.066	-0.130
17.068	-0.060
17.070	-0.005
17.072	0.035
17.074	0.085
17.076	0.150
17.078	0.195
17.080	0.290
17.082	0.405
17.084	0.545
17.086	0.640
17.088	0.615
17.090	0.620
17.092	0.540
17.094	0.470
17.096	0.375
17.098	0.280
17.100	0.185
17.102	0.075
17.104	-0.040
17.106	-0.155
17.108	-0.190
17.110	-0.200
17.112	-0.195
17.114	-0.210
17.116	-0.195
17.118	-0.175
17.120	-0.150
17.122	-0.135
17.124	-0.115
17.126	-0.095
17.128	-0.100
17.130	-0.095
17.132	-0.110
17.134	-0.125
17.136	-0.140
17.138	-0.145
17.140	-0.145
17.142	-0.135
17.144	-0.115
17.146	-0.120
17.148	-0.105
17.150	-0.090
17.152	-0.105
17.154	-0.115
17.156	-0.125
17.158	-0.130
17.160	-0.130
17.162	-0.115
17.164	-0.105
17.166	-0.095
17.168	-0.080
17.170	-0.080
17.172	-0.085
17.174	-0.090
17.176	-0.090
17.178	-0.095
17.180	-0.115
17.182	-0.110
17.184	-0.110
17.186	-0.095
17.188	-0.090
17.190	-0.090
17.192	-0.090
17.194	-0.100
17.196	-0.100
17.198	-0.110
17.200	-0.105
17.202	-0.090
17.204	-0.070
17.206	-0.065
17.208	-0.060
17.210	-0.050
17.212	-0.055
17.214	-0.065
17.216	-0.070
17.218	-0.080
17.220	-0.085
17.222	-0.085
17.224	-0.060
17.226	-0.050
17.228	-0.055
17.230	-0.050
17.232	-0.065
17.234	-0.050
17.236	-0.060
17.238	-0.075
17.240	-0.065
17.242	-0.045
17.244	-0.030
17.246	-0.025
17.248	-0.010
17.250	-0.020
17.252	-0.025
17.254	-0.030
17.256	-0.030
17.258	-0.035
17.260	-0.025
17.262	0.000
17.264	0.015
17.266	0.020
17.268	0.045
17.270	0.045
17.272	0.040
17.274	0.040
17.276	0.040
17.278	0.050
17.280	0.050
17.282	0.055
17.284	0.075
17.286	0.095
17.288	0.110
17.290	0.110
17.292	0.100
17.294	0.105
17.296	0.110
17.298	0.110
17.300	0.115
17.302	0.120
17.304	0.125
17.306	0.145
17.308	0.145
17.310	0.150
17.312	0.140
17.314	0.125
17.316	0.125
17.318	0.125
17.320	0.120
17.322	0.125
17.324	0.130
17.326	0.130
17.328	0.135
17.330	0.130
17.332	0.110
17.334	0.095
17.336	0.080
17.338	0.065
17.340	0.050
17.342	0.065
17.344	0.055
17.346	0.050
17.348	0.055
17.350	0.045
17.352	0.015
17.354	0.005
17.356	-0.025
17.358	-0.040
17.360	-0.020
17.362	-0.010
17.364	-0.020
17.366	-0.030
17.368	-0.030
17.370	-0.040
17.372	-0.050
17.374	-0.065
17.376	-0.065
17.378	-0.080
17.380	-0.070
17.382	-0.085
17.384	-0.085
17.386	-0.080
17.388	-0.080
17.390	-0.080
17.392	-0.090
17.394	-0.105
17.396	-0.105
17.398	-0.105
17.400	-0.100
17.402	-0.085
17.404	-0.075
17.406	-0.075
17.408	-0.085
17.410	-0.085
17.412	-0.105
17.414	-0.105
17.416	-0.115
17.418	-0.130
17.420	-0.120
17.422	-0.095
17.424	-0.085
17.426	-0.080
17.428	-0.075
17.430	-0.085
17.432	-0.095
17.434	-0.105
17.436	-0.105
17.438	-0.120
17.440	-0.085
17.442	-0.080
17.444	-0.075
17.446	-0.075
17.448	-0.080
17.450	-0.090
17.452	-0.095
17.454	-0.095
17.456	-0.095
17.458	-0.105
17.460	-0.090
17.462	-0.075
17.464	-0.075
17.466	-0.080
17.468	-0.075
17.470	-0.090
17.472	-0.095
17.474	-0.110
17.476	-0.110
17.478	-0.100
17.480	-0.075
17.482	-0.070
17.484	-0.060
17.486	-0.050
17.488	-0.055
17.490	-0.070
17.492	-0.075
17.494	-0.080
17.496	-0.080
17.498	-0.075
17.500	-0.075
17.502	-0.070
17.504	-0.050
17.506	-0.045
17.508	-0.035
17.510	-0.055
17.512	-0.065
17.514	-0.065
17.516	-0.070
17.518	-0.070
17.520	-0.065
17.522	-0.055
17.524	-0.040
17.526	-0.030
17.528	-0.030
17.530	-0.045
17.532	-0.055
17.534	-0.065
17.536	-0.060
17.538	-0.045
17.540	-0.040
17.542	-0.035
17.544	-0.035
17.546	-0.035
17.548	-0.020
17.550	-0.040
17.552	-0.045
17.554	-0.055
17.556	-0.070
17.558	-0.065
17.560	-0.055
17.562	-0.040
17.564	-0.015
17.566	-0.040
17.568	-0.045
17.570	-0.045
17.572	-0.055
17.574	-0.065
17.576	-0.070
17.578	-0.065
17.580	-0.050
17.582	-0.035
17.584	-0.035
17.586	-0.035
17.588	-0.035
17.590	-0.050
17.592	-0.060
17.594	-0.055
17.596	-0.070
17.598	-0.070
17.600	-0.055
17.602	-0.045
17.604	-0.040
17.606	-0.030
17.608	-0.025
17.610	-0.050
17.612	-0.065
17.614	-0.085
17.616	-0.085
17.618	-0.070
17.620	-0.055
17.622	-0.035
17.624	-0.040
17.626	-0.045
17.628	-0.045
17.630	-0.050
17.632	-0.075
17.634	-0.075
17.636	-0.095
17.638	-0.090
17.640	-0.080
17.642	-0.065
17.644	-0.055
17.646	-0.050
17.648	-0.050
17.650	-0.060
17.652	-0.075
17.654	-0.080
17.656	-0.090
17.658	-0.080
17.660	-0.060
17.662	-0.045
17.664	-0.055
17.666	-0.055
17.668	-0.065
17.670	-0.075
17.672	-0.080
17.674	-0.080
17.676	-0.085
17.678	-0.075
17.680	-0.075
17.682	-0.070
17.684	-0.060
17.686	-0.055
17.688	-0.050
17.690	-0.065
17.692	-0.075
17.694	-0.080
17.696	-0.090
17.698	-0.090
17.700	-0.075
17.702	-0.060
17.704	-0.065
17.706	-0.055
17.708	-0.060
17.710	-0.075
17.712	-0.080
17.714	-0.095
17.716	-0.105
17.718	-0.100
17.720	-0.095
17.722	-0.075
17.724	-0.075
17.726	-0.070
17.728	-0.075
17.730	-0.090
17.732	-0.095
17.734	-0.090
17.736	-0.105
17.738	-0.085
17.740	-0.065
17.742	-0.045
17.744	-0.045
17.746	-0.020
17.748	-0.040
17.750	-0.065
17.752	-0.065
17.754	-0.070
17.756	-0.075
17.758	-0.070
17.760	-0.065
17.762	-0.060
17.764	-0.040
17.766	-0.030
17.768	-0.045
17.770	-0.070
17.772	-0.060
17.774	-0.055
17.776	-0.050
17.778	-0.035
17.780	-0.020
17.782	-0.025
17.784	-0.010
17.786	-0.005
17.788	-0.025
17.790	-0.045
17.792	-0.030
17.794	-0.025
17.796	-0.030
17.798	-0.025
17.800	-0.020
17.802	-0.010
17.804	-0.015
17.806	-0.025
17.808	-0.040
17.810	-0.075
17.812	-0.090
17.814	-0.100
17.816	-0.110
17.818	-0.100
17.820	-0.090
17.822	-0.085
17.824	-0.080
17.826	-0.085
17.828	-0.080
17.830	-0.100
17.832	-0.105
17.834	-0.095
17.836	-0.110
17.838	-0.095
17.840	-0.080
17.842	-0.085
17.844	-0.075
17.846	-0.070
17.848	-0.085
17.850	-0.100
17.852	-0.115
17.854	-0.110
17.856	-0.125
17.858	-0.105
17.860	-0.095
17.862	-0.085
17.864	-0.085
17.866	-0.095
17.868	-0.110
17.870	-0.125
17.872	-0.120
17.874	-0.100
17.876	-0.120
17.878	-0.110
17.880	-0.105
17.882	-0.090
17.884	-0.085
17.886	-0.095
17.888	-0.120
17.890	-0.115
17.892	-0.120
17.894	-0.120
17.896	-0.115
17.898	-0.105
17.900	-0.100
17.902	-0.100
17.904	-0.095
17.906	-0.110
17.908	-0.140
17.910	-0.150
17.912	-0.150
17.914	-0.170
17.916	-0.175
17.918	-0.155
17.920	-0.115
17.922	-0.055
17.924	0.000
17.926	0.045
17.928	0.100
17.930	0.155
17.932	0.215
17.934	0.285
17.936	0.385
17.938	0.530
17.940	0.630
17.942	0.665
17.944	0.655
17.946	0.590
17.948	0.505
17.950	0.425
17.952	0.345
17.954	0.250
17.956	0.150
17.958	0.025
17.960	-0.090
17.962	-0.160
17.964	-0.170
17.966	-0.155
17.968	-0.150
17.970	-0.145
17.972	-0.145
17.974	-0.110
17.976	-0.095
17.978	-0.075
17.980	-0.060
17.982	-0.045
17.984	-0.050
17.986	-0.060
17.988	-0.075
17.990	-0.095
17.992	-0.090
17.994	-0.090
17.996	-0.090
17.998	-0.085
18.000	-0.080
18.002	-0.070
18.004	-0.050
18.006	-0.060
18.008	-0.065
18.010	-0.080
18.012	-0.090
18.014	-0.100
18.016	-0.090
18.018	-0.060
18.020	-0.055
18.022	-0.055
18.024	-0.040
18.026	-0.055
18.028	-0.070
18.030	-0.080
18.032	-0.065
18.034	-0.065
18.036	-0.050
18.038	-0.055
18.040	-0.045
18.042	-0.030
18.044	-0.015
18.046	-0.030
18.048	-0.050
18.050	-0.045
18.052	-0.045
18.054	-0.060
18.056	-0.035
18.058	-0.025
18.060	-0.025
18.062	-0.035
18.064	-0.030
18.066	-0.035
18.068	-0.035
18.070	-0.045
18.072	-0.055
18.074	-0.055
18.076	-0.040
18.078	-0.030
18.080	-0.015
18.082	-0.005
18.084	0.010
18.086	-0.005
18.088	-0.010
18.090	-0.005
18.092	-0.010
18.094	-0.015
18.096	-0.015
18.098	0.010
18.100	0.010
18.102	0.030
18.104	0.050
18.106	0.040
18.108	0.020
18.110	0.020
18.112	0.020
18.114	0.015
18.116	0.040
18.118	0.055
18.120	0.070
18.122	0.085
18.124	0.085
18.126	0.080
18.128	0.085
18.130	0.070
18.132	0.075
18.134	0.070
18.136	0.090
18.138	0.105
18.140	0.125
18.142	0.140
18.144	0.135
18.146	0.130
18.148	0.135
18.150	0.135
18.152	0.140
18.154	0.145
18.156	0.155
18.158	0.155
18.160	0.170
18.162	0.180
18.164	0.175
18.166	0.165
18.168	0.155
18.170	0.160
18.172	0.155
18.174	0.150
18.176	0.155
18.178	0.170
18.180	0.170
18.182	0.180
18.184	0.180
18.186	0.155
18.188	0.130
18.190	0.115
18.192	0.110
18.194	0.095
18.196	0.095
18.198	0.100
18.200	0.090
18.202	0.080
18.204	0.075
18.206	0.060
18.208	0.040
18.210	0.050
18.212	0.005
18.214	-0.015
18.216	0.005
18.218	0.005
18.220	0.000
18.222	-0.005
18.224	-0.010
18.226	-0.030
18.228	-0.030
18.230	-0.040
18.232	-0.050
18.234	-0.055
18.236	-0.045
18.238	-0.040
18.240	-0.035
18.242	-0.050
18.244	-0.050
18.246	-0.075
18.248	-0.080
18.250	-0.090
18.252	-0.100
18.254	-0.085
18.256	-0.075
18.258	-0.060
18.260	-0.055
18.262	-0.050
18.264	-0.075
18.266	-0.085
