const short tabla[10000] = {119 ,119 ,114 ,114 ,114 ,114 ,114 ,119 ,119 ,119
	 ,124 ,124 ,124 ,124 ,129 ,129 ,129 ,129 ,134 ,134
	 ,134 ,134 ,134 ,134 ,134 ,134 ,134 ,139 ,139 ,139
	 ,139 ,144 ,144 ,144 ,144 ,148 ,148 ,148 ,148 ,148
	 ,153 ,153 ,158 ,163 ,163 ,168 ,168 ,173 ,173 ,173
	 ,173 ,168 ,168 ,173 ,173 ,178 ,183 ,183 ,188 ,193
	 ,198 ,203 ,208 ,213 ,223 ,228 ,238 ,243 ,253 ,258
	 ,258 ,263 ,263 ,263 ,268 ,268 ,273 ,278 ,288 ,297
	 ,307 ,317 ,327 ,332 ,337 ,342 ,347 ,352 ,357 ,357
	 ,357 ,357 ,357 ,352 ,352 ,347 ,342 ,337 ,337 ,332
	 ,332 ,332 ,332 ,327 ,322 ,317 ,307 ,297 ,283 ,273
	 ,258 ,248 ,243 ,233 ,228 ,223 ,218 ,213 ,208 ,198
	 ,188 ,178 ,173 ,168 ,168 ,173 ,183 ,198 ,218 ,233
	 ,248 ,258 ,263 ,268 ,268 ,263 ,258 ,258 ,258 ,258
	 ,263 ,263 ,268 ,273 ,278 ,283 ,283 ,283 ,283 ,288
	 ,288 ,292 ,292 ,297 ,297 ,302 ,302 ,302 ,302 ,302
	 ,297 ,297 ,297 ,292 ,292 ,292 ,297 ,297 ,302 ,302
	 ,302 ,307 ,307 ,307 ,307 ,302 ,302 ,302 ,302 ,297
	 ,297 ,297 ,297 ,297 ,297 ,292 ,292 ,292 ,297 ,297
	 ,297 ,302 ,302 ,307 ,307 ,307 ,307 ,302 ,302 ,297
	 ,297 ,292 ,288 ,288 ,288 ,283 ,283 ,283 ,283 ,283
	 ,278 ,278 ,278 ,273 ,268 ,268 ,263 ,263 ,258 ,258
	 ,263 ,263 ,268 ,273 ,278 ,278 ,278 ,278 ,278 ,278
	 ,278 ,278 ,283 ,283 ,283 ,283 ,278 ,273 ,268 ,263
	 ,253 ,253 ,253 ,253 ,258 ,268 ,273 ,273 ,278 ,278
	 ,273 ,268 ,263 ,258 ,258 ,263 ,263 ,268 ,278 ,283
	 ,288 ,292 ,292 ,292 ,297 ,292 ,292 ,292 ,288 ,288
	 ,283 ,278 ,278 ,273 ,278 ,283 ,288 ,292 ,302 ,307
	 ,312 ,317 ,312 ,307 ,302 ,297 ,288 ,283 ,278 ,273
	 ,273 ,268 ,263 ,253 ,248 ,243 ,243 ,238 ,238 ,243
	 ,248 ,248 ,253 ,253 ,253 ,253 ,253 ,248 ,248 ,248
	 ,243 ,243 ,238 ,238 ,233 ,228 ,223 ,223 ,223 ,223
	 ,223 ,223 ,223 ,223 ,218 ,218 ,213 ,208 ,203 ,203
	 ,203 ,203 ,203 ,208 ,208 ,203 ,198 ,193 ,188 ,188
	 ,198 ,218 ,258 ,307 ,372 ,451 ,536 ,620 ,700 ,764
	 ,819 ,849 ,854 ,829 ,784 ,715 ,625 ,526 ,422 ,322
	 ,233 ,163 ,114 ,89 ,84 ,94 ,119 ,144 ,173 ,193
	 ,208 ,218 ,218 ,213 ,208 ,198 ,198 ,193 ,193 ,193
	 ,193 ,198 ,198 ,198 ,193 ,193 ,193 ,188 ,188 ,188
	 ,188 ,188 ,188 ,193 ,193 ,198 ,203 ,203 ,208 ,208
	 ,208 ,208 ,208 ,208 ,208 ,208 ,203 ,203 ,203 ,203
	 ,208 ,208 ,213 ,213 ,218 ,223 ,223 ,223 ,223 ,223
	 ,223 ,223 ,223 ,223 ,228 ,233 ,238 ,243 ,248 ,253
	 ,258 ,258 ,263 ,263 ,268 ,273 ,278 ,283 ,288 ,297
	 ,302 ,302 ,307 ,307 ,307 ,307 ,307 ,312 ,317 ,322
	 ,327 ,337 ,347 ,352 ,362 ,367 ,372 ,372 ,377 ,377
	 ,377 ,377 ,377 ,382 ,382 ,387 ,392 ,397 ,402 ,407
	 ,407 ,402 ,397 ,387 ,372 ,362 ,352 ,347 ,342 ,337
	 ,332 ,327 ,317 ,307 ,292 ,278 ,263 ,248 ,238 ,228
	 ,228 ,228 ,228 ,228 ,228 ,223 ,218 ,208 ,198 ,193
	 ,188 ,183 ,183 ,183 ,188 ,183 ,183 ,178 ,173 ,163
	 ,158 ,158 ,153 ,153 ,158 ,163 ,168 ,173 ,173 ,178
	 ,178 ,178 ,178 ,178 ,178 ,178 ,178 ,178 ,173 ,173
	 ,168 ,168 ,168 ,168 ,173 ,173 ,178 ,178 ,178 ,183
	 ,178 ,178 ,178 ,173 ,173 ,173 ,173 ,173 ,173 ,168
	 ,168 ,168 ,163 ,163 ,163 ,163 ,168 ,168 ,173 ,178
	 ,178 ,183 ,178 ,178 ,178 ,173 ,173 ,173 ,173 ,178
	 ,178 ,183 ,188 ,193 ,193 ,198 ,198 ,198 ,198 ,198
	 ,198 ,198 ,198 ,198 ,203 ,203 ,203 ,198 ,198 ,198
	 ,193 ,188 ,188 ,183 ,183 ,183 ,183 ,183 ,183 ,183
	 ,183 ,183 ,178 ,178 ,173 ,173 ,168 ,168 ,168 ,173
	 ,173 ,173 ,173 ,173 ,173 ,173 ,173 ,173 ,173 ,173
	 ,173 ,178 ,183 ,183 ,188 ,188 ,193 ,193 ,193 ,198
	 ,198 ,203 ,203 ,208 ,208 ,213 ,213 ,213 ,213 ,213
	 ,213 ,213 ,208 ,208 ,203 ,203 ,198 ,198 ,198 ,203
	 ,203 ,208 ,218 ,223 ,228 ,233 ,233 ,233 ,233 ,228
	 ,223 ,218 ,213 ,208 ,203 ,198 ,193 ,188 ,178 ,173
	 ,163 ,158 ,153 ,153 ,153 ,153 ,158 ,158 ,158 ,158
	 ,158 ,158 ,158 ,158 ,158 ,158 ,158 ,158 ,153 ,153
	 ,148 ,144 ,139 ,139 ,139 ,139 ,144 ,148 ,148 ,148
	 ,148 ,144 ,139 ,134 ,129 ,129 ,129 ,129 ,129 ,129
	 ,124 ,119 ,109 ,104 ,104 ,114 ,139 ,178 ,228 ,292
	 ,372 ,456 ,541 ,625 ,700 ,759 ,804 ,824 ,819 ,784
	 ,725 ,640 ,541 ,432 ,317 ,218 ,139 ,84 ,54 ,49
	 ,64 ,94 ,124 ,153 ,173 ,178 ,178 ,168 ,158 ,148
	 ,139 ,134 ,134 ,139 ,144 ,148 ,148 ,153 ,153 ,153
	 ,153 ,153 ,153 ,158 ,163 ,163 ,168 ,168 ,168 ,163
	 ,163 ,163 ,168 ,168 ,173 ,178 ,183 ,188 ,188 ,193
	 ,193 ,198 ,198 ,203 ,208 ,208 ,213 ,218 ,218 ,218
	 ,218 ,213 ,213 ,213 ,213 ,213 ,218 ,223 ,228 ,238
	 ,243 ,248 ,253 ,253 ,253 ,253 ,253 ,248 ,248 ,243
	 ,243 ,248 ,253 ,258 ,268 ,278 ,292 ,302 ,307 ,317
	 ,322 ,327 ,332 ,337 ,342 ,347 ,357 ,362 ,372 ,377
	 ,387 ,392 ,392 ,397 ,397 ,397 ,402 ,407 ,407 ,407
	 ,407 ,407 ,402 ,397 ,387 ,382 ,377 ,372 ,372 ,372
	 ,372 ,372 ,367 ,362 ,352 ,342 ,322 ,307 ,292 ,278
	 ,268 ,263 ,263 ,258 ,258 ,253 ,253 ,243 ,233 ,223
	 ,213 ,203 ,198 ,193 ,188 ,188 ,188 ,188 ,183 ,183
	 ,178 ,173 ,173 ,168 ,168 ,163 ,163 ,168 ,168 ,173
	 ,173 ,173 ,178 ,178 ,173 ,173 ,173 ,173 ,173 ,173
	 ,168 ,168 ,168 ,168 ,168 ,163 ,163 ,163 ,158 ,158
	 ,153 ,148 ,144 ,144 ,139 ,139 ,139 ,144 ,148 ,153
	 ,158 ,163 ,168 ,168 ,168 ,168 ,168 ,163 ,163 ,163
	 ,168 ,168 ,173 ,173 ,178 ,178 ,173 ,173 ,168 ,168
	 ,163 ,163 ,158 ,158 ,158 ,158 ,158 ,158 ,158 ,158
	 ,158 ,153 ,153 ,153 ,153 ,153 ,153 ,153 ,153 ,153
	 ,153 ,153 ,153 ,148 ,148 ,148 ,148 ,144 ,144 ,139
	 ,139 ,134 ,134 ,134 ,134 ,134 ,134 ,134 ,134 ,134
	 ,134 ,129 ,129 ,124 ,124 ,124 ,119 ,119 ,119 ,119
	 ,119 ,119 ,119 ,119 ,119 ,124 ,124 ,124 ,129 ,129
	 ,129 ,124 ,124 ,119 ,114 ,114 ,109 ,114 ,114 ,124
	 ,129 ,134 ,139 ,144 ,139 ,134 ,129 ,124 ,119 ,114
	 ,114 ,114 ,114 ,119 ,119 ,119 ,119 ,124 ,124 ,129
	 ,139 ,148 ,163 ,178 ,193 ,208 ,223 ,233 ,238 ,243
	 ,248 ,248 ,248 ,248 ,253 ,253 ,258 ,263 ,273 ,278
	 ,283 ,292 ,297 ,302 ,307 ,312 ,312 ,312 ,317 ,317
	 ,317 ,317 ,312 ,312 ,312 ,307 ,307 ,302 ,297 ,297
	 ,292 ,288 ,288 ,283 ,278 ,273 ,273 ,268 ,263 ,263
	 ,263 ,263 ,263 ,268 ,268 ,268 ,268 ,263 ,258 ,253
	 ,248 ,243 ,238 ,233 ,228 ,228 ,228 ,228 ,228 ,233
	 ,233 ,238 ,238 ,243 ,243 ,238 ,238 ,238 ,233 ,233
	 ,233 ,233 ,228 ,228 ,228 ,223 ,213 ,208 ,198 ,193
	 ,188 ,193 ,208 ,233 ,273 ,322 ,387 ,461 ,541 ,630
	 ,720 ,804 ,878 ,933 ,963 ,963 ,933 ,869 ,779 ,670
	 ,551 ,437 ,332 ,248 ,188 ,158 ,148 ,158 ,178 ,198
	 ,223 ,238 ,243 ,248 ,248 ,248 ,248 ,253 ,258 ,263
	 ,263 ,268 ,268 ,263 ,258 ,253 ,248 ,243 ,243 ,248
	 ,253 ,258 ,263 ,263 ,268 ,263 ,263 ,258 ,258 ,258
	 ,253 ,253 ,253 ,253 ,253 ,253 ,253 ,253 ,253 ,253
	 ,258 ,258 ,263 ,268 ,273 ,273 ,278 ,278 ,278 ,278
	 ,278 ,273 ,273 ,273 ,278 ,278 ,278 ,283 ,283 ,283
	 ,288 ,288 ,292 ,297 ,302 ,307 ,312 ,317 ,322 ,322
	 ,327 ,327 ,327 ,332 ,337 ,342 ,352 ,362 ,372 ,382
	 ,397 ,402 ,412 ,417 ,417 ,422 ,422 ,422 ,422 ,422
	 ,427 ,432 ,437 ,437 ,441 ,446 ,446 ,446 ,441 ,437
	 ,432 ,427 ,422 ,417 ,417 ,412 ,407 ,402 ,392 ,382
	 ,367 ,352 ,337 ,322 ,307 ,297 ,288 ,283 ,278 ,278
	 ,273 ,263 ,258 ,248 ,238 ,228 ,218 ,213 ,208 ,203
	 ,203 ,198 ,198 ,193 ,183 ,178 ,173 ,168 ,168 ,168
	 ,168 ,173 ,173 ,173 ,168 ,163 ,158 ,153 ,144 ,144
	 ,144 ,144 ,148 ,153 ,158 ,158 ,158 ,153 ,148 ,144
	 ,139 ,134 ,134 ,134 ,134 ,144 ,148 ,158 ,163 ,168
	 ,173 ,168 ,168 ,163 ,158 ,153 ,148 ,148 ,144 ,144
	 ,144 ,148 ,148 ,153 ,153 ,158 ,158 ,163 ,163 ,163
	 ,163 ,158 ,158 ,153 ,148 ,148 ,148 ,148 ,148 ,153
	 ,153 ,158 ,158 ,158 ,158 ,158 ,153 ,153 ,153 ,153
	 ,153 ,153 ,153 ,153 ,148 ,144 ,144 ,139 ,139 ,134
	 ,134 ,134 ,139 ,139 ,139 ,144 ,144 ,144 ,144 ,144
	 ,139 ,139 ,139 ,144 ,144 ,148 ,153 ,158 ,163 ,163
	 ,168 ,168 ,168 ,163 ,158 ,153 ,144 ,139 ,139 ,134
	 ,139 ,139 ,144 ,153 ,153 ,158 ,158 ,158 ,153 ,148
	 ,148 ,144 ,139 ,139 ,139 ,139 ,139 ,139 ,139 ,139
	 ,134 ,134 ,134 ,134 ,134 ,134 ,134 ,134 ,134 ,139
	 ,139 ,139 ,144 ,148 ,148 ,153 ,158 ,158 ,163 ,163
	 ,158 ,158 ,153 ,148 ,144 ,144 ,144 ,144 ,144 ,148
	 ,148 ,153 ,153 ,153 ,153 ,153 ,153 ,148 ,148 ,148
	 ,153 ,153 ,153 ,158 ,158 ,163 ,163 ,168 ,168 ,168
	 ,168 ,168 ,168 ,163 ,158 ,153 ,153 ,148 ,148 ,148
	 ,153 ,158 ,158 ,163 ,163 ,163 ,163 ,163 ,163 ,163
	 ,168 ,168 ,173 ,173 ,178 ,178 ,178 ,178 ,178 ,178
	 ,178 ,178 ,178 ,183 ,183 ,188 ,188 ,193 ,193 ,198
	 ,203 ,208 ,213 ,213 ,218 ,223 ,228 ,228 ,228 ,228
	 ,228 ,228 ,223 ,223 ,223 ,223 ,223 ,223 ,223 ,223
	 ,218 ,218 ,213 ,208 ,203 ,193 ,188 ,178 ,173 ,163
	 ,158 ,158 ,153 ,153 ,158 ,163 ,163 ,168 ,173 ,173
	 ,178 ,178 ,173 ,173 ,168 ,168 ,163 ,158 ,158 ,153
	 ,148 ,148 ,148 ,148 ,148 ,148 ,148 ,148 ,148 ,148
	 ,148 ,148 ,153 ,153 ,158 ,158 ,163 ,163 ,163 ,158
	 ,153 ,148 ,144 ,139 ,139 ,144 ,153 ,173 ,203 ,248
	 ,302 ,367 ,446 ,536 ,625 ,715 ,789 ,854 ,893 ,898
	 ,878 ,819 ,734 ,630 ,511 ,397 ,288 ,198 ,134 ,99
	 ,84 ,84 ,99 ,124 ,144 ,158 ,173 ,183 ,188 ,188
	 ,193 ,198 ,203 ,208 ,213 ,218 ,218 ,218 ,213 ,213
	 ,208 ,208 ,208 ,208 ,208 ,208 ,213 ,208 ,208 ,208
	 ,208 ,213 ,213 ,218 ,218 ,223 ,223 ,228 ,228 ,228
	 ,228 ,223 ,223 ,223 ,228 ,223 ,223 ,223 ,223 ,223
	 ,223 ,223 ,223 ,228 ,233 ,238 ,243 ,248 ,248 ,253
	 ,253 ,258 ,258 ,263 ,268 ,273 ,283 ,288 ,292 ,292
	 ,297 ,297 ,297 ,297 ,297 ,302 ,307 ,317 ,322 ,327
	 ,337 ,342 ,347 ,352 ,357 ,362 ,367 ,377 ,382 ,392
	 ,397 ,407 ,412 ,417 ,417 ,422 ,427 ,427 ,432 ,437
	 ,441 ,441 ,446 ,451 ,456 ,456 ,456 ,451 ,446 ,437
	 ,427 ,412 ,402 ,387 ,377 ,372 ,367 ,367 ,367 ,367
	 ,362 ,357 ,347 ,332 ,312 ,297 ,278 ,263 ,253 ,248
	 ,248 ,248 ,248 ,248 ,248 ,243 ,233 ,228 ,218 ,208
	 ,208 ,203 ,203 ,203 ,203 ,203 ,203 ,203 ,198 ,198
	 ,193 ,188 ,183 ,183 ,183 ,183 ,183 ,183 ,188 ,188
	 ,188 ,183 ,183 ,178 ,178 ,178 ,178 ,178 ,183 ,183
	 ,188 ,193 ,198 ,203 ,203 ,198 ,193 ,188 ,183 ,178
	 ,173 ,173 ,168 ,168 ,168 ,168 ,173 ,178 ,183 ,183
	 ,188 ,188 ,188 ,188 ,183 ,183 ,178 ,178 ,178 ,178
	 ,183 ,193 ,203 ,208 ,213 ,218 ,218 ,213 ,208 ,203
	 ,193 ,188 ,188 ,188 ,188 ,193 ,198 ,203 ,203 ,208
	 ,208 ,208 ,208 ,203 ,203 ,198 ,198 ,193 ,193 ,188
	 ,188 ,183 ,183 ,178 ,173 ,173 ,173 ,173 ,178 ,183
	 ,188 ,193 ,198 ,198 ,198 ,193 ,188 ,178 ,173 ,163
	 ,163 ,158 ,158 ,163 ,163 ,168 ,168 ,168 ,168 ,163
	 ,163 ,158 ,158 ,158 ,163 ,163 ,168 ,173 ,178 ,178
	 ,183 ,183 ,183 ,183 ,183 ,183 ,178 ,178 ,173 ,168
	 ,163 ,158 ,158 ,153 ,153 ,158 ,163 ,168 ,173 ,178
	 ,178 ,178 ,173 ,168 ,168 ,163 ,158 ,153 ,148 ,148
	 ,144 ,144 ,144 ,144 ,144 ,144 ,148 ,148 ,153 ,153
	 ,158 ,163 ,163 ,168 ,168 ,168 ,168 ,168 ,163 ,163
	 ,158 ,158 ,158 ,163 ,163 ,168 ,173 ,178 ,188 ,193
	 ,198 ,198 ,203 ,208 ,213 ,218 ,223 ,233 ,238 ,243
	 ,248 ,253 ,253 ,258 ,258 ,263 ,263 ,268 ,273 ,278
	 ,278 ,283 ,288 ,292 ,292 ,292 ,292 ,292 ,292 ,292
	 ,297 ,297 ,302 ,307 ,312 ,317 ,322 ,322 ,327 ,332
	 ,337 ,342 ,342 ,347 ,347 ,347 ,347 ,347 ,347 ,342
	 ,337 ,332 ,332 ,332 ,327 ,327 ,327 ,327 ,327 ,327
	 ,322 ,317 ,317 ,312 ,307 ,307 ,307 ,302 ,302 ,297
	 ,292 ,288 ,283 ,278 ,273 ,273 ,268 ,268 ,273 ,273
	 ,268 ,268 ,263 ,258 ,253 ,248 ,243 ,243 ,243 ,248
	 ,253 ,258 ,263 ,268 ,273 ,273 ,273 ,268 ,263 ,258
	 ,253 ,248 ,248 ,248 ,248 ,248 ,248 ,248 ,243 ,238
	 ,228 ,223 ,218 ,218 ,228 ,248 ,278 ,322 ,377 ,441
	 ,516 ,595 ,675 ,749 ,814 ,859 ,883 ,883 ,859 ,799
	 ,720 ,620 ,511 ,397 ,297 ,218 ,158 ,129 ,119 ,134
	 ,153 ,183 ,213 ,238 ,253 ,263 ,263 ,263 ,263 ,263
	 ,263 ,268 ,273 ,273 ,273 ,273 ,268 ,263 ,258 ,253
	 ,248 ,248 ,248 ,248 ,253 ,253 ,258 ,258 ,258 ,263
	 ,263 ,258 ,258 ,258 ,258 ,258 ,258 ,258 ,263 ,263
	 ,263 ,263 ,263 ,263 ,263 ,263 ,263 ,268 ,268 ,273
	 ,278 ,283 ,288 ,292 ,297 ,297 ,302 ,297 ,297 ,292
	 ,288 ,283 ,283 ,283 ,283 ,288 ,288 ,292 ,297 ,302
	 ,307 ,312 ,317 ,327 ,332 ,342 ,352 ,357 ,362 ,367
	 ,372 ,372 ,372 ,377 ,377 ,382 ,387 ,397 ,402 ,412
	 ,417 ,422 ,422 ,422 ,422 ,422 ,417 ,417 ,417 ,417
	 ,422 ,427 ,427 ,427 ,427 ,422 ,422 ,412 ,407 ,397
	 ,387 ,377 ,367 ,357 ,342 ,332 ,322 ,307 ,292 ,283
	 ,273 ,263 ,253 ,243 ,238 ,233 ,223 ,218 ,213 ,208
	 ,203 ,193 ,188 ,183 ,178 ,178 ,173 ,173 ,168 ,168
	 ,163 ,153 ,148 ,139 ,134 ,129 ,124 ,124 ,124 ,124
	 ,129 ,129 ,134 ,134 ,134 ,134 ,129 ,129 ,129 ,129
	 ,129 ,129 ,129 ,129 ,124 ,124 ,119 ,119 ,119 ,114
	 ,114 ,119 ,119 ,124 ,124 ,129 ,129 ,129 ,129 ,129
	 ,129 ,124 ,124 ,124 ,124 ,129 ,129 ,134 ,139 ,139
	 ,144 ,144 ,144 ,139 ,134 ,134 ,129 ,129 ,129 ,129
	 ,134 ,144 ,148 ,153 ,158 ,163 ,163 ,158 ,153 ,148
	 ,144 ,139 ,139 ,139 ,144 ,144 ,148 ,148 ,148 ,148
	 ,148 ,144 ,144 ,144 ,144 ,144 ,148 ,153 ,153 ,153
	 ,153 ,148 ,144 ,139 ,134 ,134 ,129 ,129 ,124 ,129
	 ,129 ,129 ,129 ,134 ,134 ,139 ,139 ,139 ,139 ,139
	 ,134 ,134 ,129 ,129 ,129 ,124 ,124 ,124 ,124 ,124
	 ,119 ,119 ,119 ,114 ,114 ,114 ,119 ,124 ,129 ,134
	 ,139 ,144 ,144 ,144 ,144 ,139 ,134 ,129 ,129 ,124
	 ,124 ,129 ,129 ,134 ,139 ,139 ,144 ,144 ,144 ,139
	 ,139 ,134 ,129 ,124 ,124 ,119 ,124 ,124 ,129 ,134
	 ,139 ,144 ,148 ,148 ,144 ,139 ,129 ,124 ,119 ,114
	 ,109 ,114 ,119 ,124 ,129 ,139 ,144 ,148 ,148 ,148
	 ,148 ,144 ,144 ,139 ,139 ,139 ,139 ,139 ,139 ,144
	 ,144 ,144 ,144 ,144 ,144 ,144 ,139 ,139 ,139 ,134
	 ,134 ,134 ,134 ,139 ,144 ,148 ,153 ,158 ,168 ,173
	 ,173 ,178 ,178 ,178 ,178 ,178 ,178 ,183 ,183 ,183
	 ,188 ,193 ,198 ,198 ,203 ,208 ,208 ,208 ,208 ,208
	 ,203 ,203 ,198 ,193 ,193 ,188 ,188 ,183 ,183 ,178
	 ,173 ,173 ,168 ,163 ,163 ,158 ,158 ,158 ,158 ,153
	 ,153 ,153 ,153 ,148 ,144 ,144 ,139 ,134 ,134 ,129
	 ,129 ,129 ,129 ,129 ,129 ,129 ,134 ,134 ,134 ,134
	 ,134 ,139 ,139 ,144 ,148 ,148 ,148 ,148 ,148 ,148
	 ,144 ,139 ,139 ,134 ,134 ,129 ,129 ,124 ,119 ,119
	 ,114 ,119 ,124 ,144 ,168 ,213 ,263 ,332 ,407 ,491
	 ,581 ,665 ,739 ,799 ,834 ,839 ,819 ,769 ,695 ,595
	 ,491 ,382 ,278 ,193 ,129 ,89 ,69 ,69 ,84 ,99
	 ,119 ,139 ,148 ,158 ,158 ,158 ,158 ,163 ,163 ,168
	 ,173 ,178 ,183 ,183 ,183 ,183 ,183 ,183 ,183 ,188
	 ,188 ,188 ,188 ,188 ,188 ,188 ,188 ,193 ,193 ,198
	 ,198 ,203 ,203 ,203 ,203 ,203 ,203 ,203 ,203 ,203
	 ,208 ,213 ,218 ,223 ,228 ,228 ,233 ,233 ,233 ,233
	 ,233 ,233 ,233 ,233 ,238 ,238 ,243 ,248 ,248 ,253
	 ,253 ,253 ,258 ,258 ,258 ,258 ,263 ,268 ,273 ,278
	 ,283 ,288 ,292 ,297 ,302 ,307 ,312 ,317 ,322 ,327
	 ,332 ,337 ,347 ,352 ,362 ,367 ,377 ,382 ,392 ,397
	 ,402 ,407 ,407 ,412 ,417 ,417 ,417 ,417 ,417 ,417
	 ,417 ,417 ,417 ,417 ,417 ,412 ,412 ,412 ,407 ,402
	 ,397 ,387 ,377 ,367 ,357 ,347 ,337 ,332 ,322 ,312
	 ,302 ,292 ,283 ,268 ,258 ,248 ,238 ,233 ,228 ,228
	 ,228 ,228 ,228 ,228 ,223 ,218 ,218 ,213 ,208 ,203
	 ,198 ,198 ,198 ,198 ,203 ,203 ,208 ,208 ,208 ,208
	 ,203 ,198 ,193 ,188 ,183 ,178 ,173 ,168 ,168 ,173
	 ,173 ,178 ,183 ,183 ,188 ,193 ,193 ,198 ,198 ,203
	 ,203 ,203 ,203 ,203 ,198 ,198 ,193 ,193 ,193 ,193
	 ,198 ,198 ,203 ,208 ,213 ,218 ,218 ,218 ,223 ,223
	 ,223 ,223 ,223 ,223 ,223 ,223 ,223 ,218 ,213 ,213
	 ,208 ,208 ,203 ,203 ,208 ,208 ,208 ,208 ,208 ,208
	 ,208 ,203 ,203 ,198 ,198 ,198 ,198 ,198 ,203 ,208
	 ,213 ,213 ,218 ,218 ,218 ,218 ,218 ,218 ,213 ,213
	 ,208 ,208 ,203 ,203 ,203 ,198 ,198 ,193 ,193 ,193
	 ,193 ,193 ,193 ,193 ,198 ,198 ,203 ,203 ,203 ,203
	 ,203 ,198 ,193 ,193 ,188 ,188 ,188 ,193 ,193 ,198
	 ,198 ,198 ,193 ,188 ,178 ,173 ,168 ,168 ,168 ,168
	 ,173 ,178 ,183 ,188 ,188 ,188 ,188 ,188 ,188 ,183
	 ,183 ,183 ,183 ,183 ,183 ,183 ,183 ,183 ,183 ,183
	 ,178 ,178 ,178 ,178 ,178 ,178 ,178 ,178 ,178 ,183
	 ,183 ,188 ,188 ,188 ,188 ,183 ,183 ,178 ,178 ,173
	 ,173 ,173 ,173 ,173 ,168 ,168 ,168 ,163 ,163 ,163
	 ,158 ,163 ,163 ,168 ,173 ,173 ,178 ,178 ,173 ,173
	 ,168 ,158 ,153 ,148 ,144 ,144 ,148 ,153 ,158 ,163
	 ,168 ,173 ,173 ,168 ,168 ,163 ,163 ,163 ,163 ,163
	 ,168 ,173 ,178 ,178 ,178 ,178 ,178 ,183 ,183 ,183
	 ,188 ,193 ,198 ,203 ,208 ,213 ,213 ,213 ,213 ,213
	 ,213 ,218 ,228 ,233 ,248 ,258 ,268 ,278 ,288 ,297
	 ,302 ,307 ,312 ,317 ,322 ,322 ,327 ,332 ,332 ,332
	 ,332 ,327 ,322 ,317 ,312 ,307 ,307 ,307 ,307 ,312
	 ,317 ,317 ,322 ,322 ,322 ,322 ,322 ,322 ,317 ,317
	 ,317 ,317 ,312 ,312 ,312 ,307 ,307 ,302 ,302 ,302
	 ,302 ,302 ,302 ,302 ,302 ,302 ,302 ,297 ,297 ,292
	 ,288 ,288 ,283 ,278 ,273 ,268 ,263 ,263 ,263 ,273
	 ,292 ,317 ,362 ,412 ,481 ,556 ,645 ,734 ,824 ,903
	 ,968 ,1008 ,1023 ,1003 ,953 ,874 ,774 ,660 ,541 ,427
	 ,332 ,263 ,218 ,198 ,203 ,218 ,243 ,268 ,292 ,307
	 ,317 ,317 ,317 ,317 ,312 ,312 ,317 ,317 ,317 ,322
	 ,317 ,317 ,312 ,307 ,307 ,302 ,297 ,297 ,297 ,297
	 ,292 ,292 ,292 ,292 ,292 ,292 ,297 ,297 ,302 ,302
	 ,307 ,307 ,307 ,307 ,307 ,307 ,307 ,307 ,307 ,312
	 ,317 ,322 ,327 ,332 ,337 ,337 ,337 ,337 ,337 ,337
	 ,337 ,337 ,337 ,342 ,342 ,347 ,352 ,352 ,352 ,352
	 ,352 ,352 ,352 ,352 ,352 ,352 ,357 ,362 ,372 ,377
	 ,382 ,392 ,397 ,402 ,407 ,417 ,422 ,432 ,437 ,446
	 ,451 ,461 ,466 ,471 ,476 ,481 ,486 ,486 ,491 ,491
	 ,496 ,501 ,501 ,506 ,506 ,511 ,511 ,516 ,516 ,516
	 ,516 ,511 ,506 ,501 ,491 ,476 ,466 ,451 ,441 ,427
	 ,417 ,407 ,397 ,382 ,372 ,357 ,342 ,327 ,317 ,302
	 ,297 ,288 ,283 ,278 ,273 ,268 ,258 ,248 ,238 ,223
	 ,213 ,203 ,198 ,193 ,188 ,188 ,188 ,193 ,188 ,188
	 ,188 ,183 ,178 ,173 ,173 ,173 ,173 ,173 ,173 ,173
	 ,173 ,168 ,163 ,163 ,158 ,153 ,153 ,153 ,153 ,153
	 ,158 ,158 ,163 ,163 ,163 ,163 ,158 ,158 ,158 ,158
	 ,158 ,158 ,158 ,158 ,153 ,148 ,148 ,144 ,139 ,139
	 ,134 ,139 ,139 ,144 ,144 ,148 ,148 ,148 ,148 ,148
	 ,153 ,153 ,153 ,158 ,158 ,158 ,163 ,163 ,158 ,158
	 ,153 ,148 ,144 ,144 ,139 ,139 ,139 ,139 ,144 ,144
	 ,148 ,148 ,148 ,148 ,144 ,139 ,134 ,129 ,124 ,124
	 ,119 ,119 ,119 ,124 ,124 ,129 ,134 ,134 ,139 ,139
	 ,139 ,134 ,134 ,134 ,134 ,134 ,134 ,134 ,134 ,134
	 ,129 ,129 ,124 ,119 ,114 ,109 ,104 ,104 ,104 ,99
	 ,99 ,99 ,104 ,104 ,104 ,109 ,109 ,114 ,114 ,114
	 ,114 ,109 ,109 ,104 ,99 ,89 ,89 ,84 ,84 ,84
	 ,89 ,94 ,94 ,99 ,99 ,104 ,104 ,104 ,104 ,104
	 ,104 ,104 ,104 ,104 ,104 ,104 ,104 ,104 ,104 ,104
	 ,104 ,109 ,109 ,114 ,114 ,114 ,114 ,109 ,109 ,104
	 ,104 ,104 ,104 ,104 ,109 ,114 ,119 ,124 ,124 ,129
	 ,129 ,129 ,129 ,129 ,124 ,124 ,124 ,119 ,119 ,119
	 ,119 ,119 ,124 ,129 ,134 ,139 ,144 ,144 ,144 ,144
	 ,144 ,139 ,139 ,139 ,139 ,139 ,144 ,148 ,148 ,148
	 ,148 ,148 ,148 ,153 ,153 ,158 ,168 ,173 ,183 ,193
	 ,198 ,203 ,208 ,208 ,208 ,203 ,198 ,193 ,183 ,173
	 ,168 ,158 ,153 ,144 ,139 ,134 ,134 ,129 ,129 ,124
	 ,119 ,119 ,114 ,109 ,109 ,109 ,109 ,114 ,119 ,119
	 ,124 ,129 ,129 ,129 ,129 ,124 ,124 ,119 ,114 ,114
	 ,109 ,104 ,104 ,99 ,99 ,104 ,104 ,109 ,114 ,114
	 ,119 ,119 ,119 ,114 ,109 ,104 ,104 ,99 ,99 ,99
	 ,99 ,99 ,99 ,104 ,109 ,124 ,153 ,193 ,248 ,317
	 ,402 ,486 ,576 ,655 ,720 ,759 ,779 ,769 ,730 ,670
	 ,585 ,491 ,392 ,292 ,203 ,134 ,79 ,44 ,29 ,34
	 ,49 ,74 ,104 ,129 ,148 ,158 ,168 ,168 ,168 ,168
	 ,168 ,173 ,173 ,173 ,173 ,168 ,163 ,158 ,153 ,148
	 ,148 ,148 ,153 ,158 ,168 ,173 ,178 ,183 ,183 ,183
	 ,183 ,178 ,178 ,178 ,178 ,178 ,183 ,183 ,188 ,188
	 ,188 ,188 ,188 ,188 ,188 ,188 ,188 ,188 ,193 ,193
	 ,198 ,203 ,213 ,218 ,223 ,228 ,233 ,233 ,238 ,238
	 ,243 ,243 ,248 ,253 ,253 ,258 ,263 ,263 ,268 ,268
	 ,263 ,263 ,263 ,263 ,268 ,273 ,278 ,288 ,297 ,307
	 ,317 ,327 ,332 ,342 ,347 ,352 ,357 ,362 ,367 ,372
	 ,377 ,382 ,387 ,392 ,392 ,392 ,392 ,392 ,392 ,392
	 ,392 ,397 ,397 ,402 ,407 ,407 ,412 ,407 ,407 ,402
	 ,397 ,387 ,382 ,372 ,362 ,352 ,342 ,332 ,322 ,312
	 ,302 ,292 ,288 ,283 ,278 ,273 ,268 ,263 ,258 ,253
	 ,243 ,233 ,223 ,213 ,208 ,203 ,198 ,193 ,193 ,193
	 ,193 ,198 ,198 ,198 ,193 ,193 ,193 ,188 ,183 ,183
	 ,183 ,178 ,178 ,178 ,178 ,178 ,178 ,183 ,183 ,183
	 ,188 ,188 ,188 ,188 ,193 ,193 ,193 ,193 ,193 ,193
	 ,193 ,193 ,198 ,198 ,198 ,198 ,193 ,193 ,193 ,188
	 ,188 ,188 ,188 ,188 ,193 ,198 ,198 ,203 ,208 ,208
	 ,213 ,213 ,213 ,208 ,208 ,203 ,198 ,198 ,193 ,193
	 ,193 ,193 ,198 ,198 ,208 ,213 ,218 ,218 ,218 ,218
	 ,218 ,213 ,208 ,203 ,203 ,198 ,198 ,203 ,203 ,203
	 ,208 ,208 ,208 ,208 ,208 ,208 ,208 ,208 ,203 ,203
	 ,203 ,198 ,198 ,193 ,193 ,188 ,188 ,188 ,188 ,188
	 ,188 ,188 ,183 ,183 ,183 ,183 ,183 ,183 ,188 ,188
	 ,193 ,193 ,193 ,193 ,193 ,188 ,188 ,188 ,188 ,188
	 ,193 ,198 ,203 ,203 ,208 ,208 ,208 ,203 ,203 ,198
	 ,193 ,193 ,188 ,193 ,193 ,198 ,203 ,203 ,203 ,203
	 ,198 ,193 ,188 ,178 ,173 ,168 ,163 ,163 ,163 ,168
	 ,173 ,178 ,183 ,188 ,188 ,193 ,193 ,198 ,198 ,198
	 ,198 ,198 ,198 ,193 ,193 ,188 ,188 ,183 ,183 ,183
	 ,183 ,183 ,183 ,183 ,183 ,183 ,183 ,183 ,183 ,183
	 ,178 ,178 ,183 ,188 ,193 ,198 ,208 ,218 ,223 ,228
	 ,228 ,223 ,223 ,218 ,213 ,208 ,203 ,208 ,213 ,218
	 ,228 ,238 ,243 ,253 ,253 ,258 ,258 ,253 ,253 ,248
	 ,248 ,248 ,243 ,243 ,238 ,233 ,223 ,213 ,203 ,193
	 ,183 ,178 ,173 ,173 ,173 ,173 ,178 ,178 ,178 ,178
	 ,178 ,178 ,173 ,173 ,173 ,173 ,173 ,173 ,173 ,173
	 ,173 ,168 ,163 ,163 ,158 ,158 ,153 ,158 ,158 ,163
	 ,163 ,168 ,168 ,168 ,168 ,168 ,168 ,168 ,168 ,163
	 ,163 ,153 ,148 ,139 ,134 ,129 ,129 ,134 ,148 ,178
	 ,213 ,263 ,322 ,382 ,451 ,521 ,585 ,645 ,690 ,720
	 ,725 ,715 ,675 ,615 ,536 ,446 ,352 ,263 ,183 ,124
	 ,84 ,69 ,74 ,89 ,114 ,144 ,163 ,178 ,188 ,183
	 ,178 ,173 ,168 ,168 ,173 ,178 ,188 ,193 ,198 ,193
	 ,188 ,178 ,168 ,163 ,153 ,153 ,153 ,158 ,168 ,173
	 ,183 ,188 ,188 ,193 ,188 ,188 ,188 ,188 ,188 ,188
	 ,193 ,198 ,198 ,203 ,203 ,203 ,203 ,208 ,218 ,228
	 ,238 ,253 ,268 ,283 ,302 ,312 ,322 ,332 ,342 ,347
	 ,357 ,362 ,367 ,372 ,377 ,377 ,382 ,382 ,387 ,392
	 ,402 ,407 ,417 ,427 ,437 ,441 ,446 ,451 ,451 ,446
	 ,446 ,446 ,451 ,456 ,466 ,476 ,491 ,501 ,511 ,521
	 ,531 ,536 ,541 ,541 ,546 ,546 ,551 ,551 ,556 ,556
	 ,556 ,556 ,556 ,551 ,551 ,551 ,551 ,551 ,556 ,556
	 ,556 ,556 ,551 ,546 ,541 ,531 ,521 ,506 ,496 ,486
	 ,476 ,466 ,461 ,451 ,441 ,432 ,422 ,412 ,402 ,392
	 ,387 ,382 ,377 ,372 ,367 ,362 ,362 ,357 ,352 ,347
	 ,347 ,342 ,342 ,342 ,337 ,337 ,337 ,332 ,327 ,322
	 ,312 ,307 ,302 ,297 ,297 ,297 ,302 ,307 ,312 ,317
	 ,317 ,317 ,312 ,307 ,302 ,297 ,292 ,292 ,292 ,292
	 ,297 ,297 ,297 ,297 ,297 ,297 ,297 ,292 ,292 ,292
	 ,292 ,292 ,292 ,292 ,292 ,288 ,288 ,288 ,288 ,283
	 ,283 ,283 ,283 ,283 ,283 ,278 ,278 ,278 ,273 ,273
	 ,273 ,273 ,273 ,273 ,273 ,273 ,268 ,268 ,263 ,263
	 ,258 ,253 ,253 ,248 ,248 ,253 ,253 ,253 ,258 ,258
	 ,258 ,258 ,253 ,248 ,243 ,238 ,233 ,228 ,228 ,223
	 ,223 ,223 ,228 ,228 ,228 ,228 ,228 ,228 ,223 ,223
	 ,223 ,218 ,218 ,213 ,213 ,213 ,213 ,213 ,213 ,218
	 ,218 ,218 ,218 ,218 ,213 ,213 ,213 ,208 ,203 ,203
	 ,198 ,193 ,188 ,183 ,183 ,183 ,188 ,193 ,198 ,203
	 ,208 ,208 ,208 ,203 ,193 ,183 ,173 ,168 ,163 ,158
	 ,163 ,168 ,173 ,183 ,188 ,188 ,188 ,188 ,183 ,178
	 ,173 ,168 ,163 ,158 ,153 ,153 ,148 ,148 ,148 ,148
	 ,148 ,148 ,148 ,153 ,158 ,163 ,163 ,168 ,168 ,163
	 ,163 ,163 ,163 ,163 ,163 ,168 ,173 ,178 ,183 ,188
	 ,193 ,193 ,188 ,183 ,178 ,173 ,168 ,163 ,163 ,168
	 ,173 ,178 ,188 ,203 ,213 ,218 ,228 ,228 ,228 ,223
	 ,218 ,213 ,203 ,198 ,193 ,188 ,188 ,188 ,188 ,183
	 ,183 ,178 ,173 ,168 ,158 ,148 ,144 ,134 ,129 ,129
	 ,124 ,124 ,124 ,124 ,124 ,124 ,129 ,129 ,129 ,134
	 ,134 ,134 ,129 ,129 ,124 ,119 ,109 ,104 ,104 ,104
	 ,104 ,104 ,109 ,114 ,119 ,124 ,124 ,124 ,124 ,119
	 ,114 ,109 ,104 ,104 ,99 ,94 ,94 ,89 ,89 ,89
	 ,94 ,104 ,119 ,148 ,188 ,238 ,302 ,377 ,456 ,536
	 ,610 ,670 ,705 ,720 ,705 ,660 ,590 ,506 ,407 ,312
	 ,218 ,144 ,84 ,49 ,29 ,29 ,39 ,59 ,79 ,94
	 ,109 ,119 ,124 ,129 ,134 ,134 ,134 ,139 ,139 ,139
	 ,139 ,139 ,134 ,134 ,129 ,129 ,129 ,129 ,134 ,144
	 ,148 ,158 ,163 ,168 ,173 ,173 ,168 ,168 ,163 ,158
	 ,153 ,153 ,158 ,163 ,168 ,173 ,183 ,188 ,193 ,193
	 ,193 ,188 ,183 ,178 ,173 ,168 ,168 ,168 ,168 ,173
	 ,178 ,183 ,183 ,188 ,188 ,188 ,188 ,193 ,198 ,198
	 ,208 ,213 ,218 ,223 ,228 ,228 ,233 ,233 ,238 ,243
	 ,248 ,253 ,258 ,263 ,268 ,273 ,273 ,278 ,278 ,288
	 ,292 ,302 ,317 ,332 ,342 ,352 ,362 ,367 ,367 ,367
	 ,362 ,362 ,362 ,362 ,367 ,372 ,377 ,382 ,382 ,377
	 ,372 ,367 ,362 ,357 ,357 ,352 ,352 ,352 ,352 ,347
	 ,337 ,327 ,312 ,297 ,283 ,268 ,258 ,248 ,238 ,233
	 ,228 ,223 ,218 ,213 ,203 ,198 ,193 ,188 ,178 ,173
	 ,168 ,158 ,153 ,148 ,144 ,144 ,144 ,144 ,144 ,148
	 ,148 ,148 ,144 ,144 ,139 ,134 ,129 ,129 ,124 ,129
	 ,129 ,134 ,144 ,148 ,153 ,153 ,153 ,148 ,148 ,144
	 ,139 ,134 ,134 ,139 ,144 ,148 ,153 ,163 ,168 ,168
	 ,168 ,163 ,153 ,148 ,139 ,134 ,129 ,129 ,129 ,134
	 ,144 ,148 ,158 ,163 ,168 ,168 ,168 ,163 ,163 ,163
	 ,158 ,158 ,158 ,153 ,153 ,153 ,153 ,153 ,153 ,153
	 ,153 ,158 ,163 ,168 ,168 ,173 ,178 ,178 ,178 ,178
	 ,178 ,178 ,178 ,178 ,178 ,183 ,183 ,183 ,178 ,178
	 ,178 ,173 ,173 ,168 ,168 ,163 ,158 ,158 ,153 ,148
	 ,148 ,144 ,144 ,144 ,144 ,148 ,148 ,153 ,153 ,153
	 ,153 ,158 ,158 ,158 ,163 ,163 ,168 ,168 ,168 ,168
	 ,163 ,163 ,158 ,153 ,153 ,153 ,153 ,153 ,153 ,153
	 ,158 ,158 ,163 ,163 ,163 ,163 ,163 ,163 ,163 ,158
	 ,158 ,158 ,158 ,158 ,163 ,163 ,163 ,163 ,163 ,163
	 ,163 ,158 ,158 ,158 ,153 ,158 ,158 ,158 ,158 ,158
	 ,158 ,158 ,158 ,153 ,153 ,153 ,153 ,153 ,158 ,158
	 ,163 ,168 ,168 ,173 ,178 ,183 ,183 ,188 ,188 ,188
	 ,188 ,193 ,193 ,193 ,193 ,198 ,203 ,208 ,213 ,223
	 ,228 ,238 ,243 ,248 ,248 ,253 ,248 ,243 ,238 ,228
	 ,218 ,208 ,198 ,193 ,188 ,188 ,188 ,188 ,188 ,188
	 ,183 ,178 ,173 ,168 ,158 ,153 ,153 ,153 ,153 ,158
	 ,158 ,163 ,163 ,158 ,158 ,153 ,153 ,148 ,148 ,153
	 ,153 ,158 ,158 ,158 ,158 ,158 ,158 ,153 ,153 ,153
	 ,153 ,153 ,153 ,153 ,148 ,144 ,139 ,134 ,129 ,129
	 ,129 ,129 ,129 ,129 ,134 ,139 ,148 ,173 ,208 ,258
	 ,322 ,407 ,496 ,590 ,685 ,759 ,819 ,844 ,839 ,804
	 ,739 ,645 ,541 ,427 ,317 ,223 ,144 ,89 ,59 ,49
	 ,59 ,79 ,104 ,129 ,153 ,173 ,183 ,188 ,183 ,183
	 ,178 ,173 ,173 ,173 ,173 ,178 ,183 ,183 ,183 ,183
	 ,178 ,173 ,173 ,173 ,173 ,173 ,178 ,183 ,188 ,193
	 ,193 ,193 ,193 ,193 ,193 ,198 ,198 ,203 ,208 ,213
	 ,218 ,223 ,223 ,228 ,228 ,228 ,223 ,223 ,223 ,223
	 ,223 ,228 ,228 ,228 ,233 ,233 ,233 ,233 ,238 ,238
	 ,238 ,238 ,238 ,243 ,248 ,253 ,263 ,268 ,278 ,283
	 ,288 ,292 ,297 ,297 ,302 ,307 ,307 ,312 ,317 ,322
	 ,327 ,332 ,337 ,342 ,347 ,352 ,357 ,367 ,372 ,382
	 ,387 ,392 ,402 ,407 ,412 ,417 ,422 ,427 ,432 ,437
	 ,437 ,441 ,441 ,441 ,437 ,432 ,427 ,417 ,412 ,412
	 ,407 ,407 ,407 ,407 ,402 ,392 ,387 ,372 ,357 ,342
	 ,327 ,312 ,297 ,288 ,278 ,273 ,268 ,263 ,258 ,253
	 ,253 ,248 ,243 ,238 ,238 ,233 ,228 ,218 ,213 ,203
	 ,193 ,188 ,178 ,173 ,173 ,173 ,173 ,183 ,188 ,193
	 ,198 ,198 ,198 ,193 ,188 ,183 ,178 ,173 ,173 ,178
	 ,178 ,183 ,188 ,193 ,193 ,193 ,188 ,188 ,183 ,183
	 ,178 ,178 ,178 ,178 ,183 ,183 ,183 ,183 ,183 ,188
	 ,188 ,193 ,198 ,203 ,208 ,208 ,208 ,208 ,208 ,203
	 ,198 ,198 ,198 ,198 ,198 ,203 ,203 ,203 ,203 ,203
	 ,203 ,203 ,203 ,198 ,203 ,203 ,203 ,203 ,203 ,203
	 ,203 ,203 ,203 ,208 ,208 ,213 ,213 ,213 ,208 ,208
	 ,203 ,203 ,203 ,203 ,208 ,218 ,228 ,238 ,253 ,263
	 ,278 ,288 ,297 ,302 ,312 ,317 ,317 ,322 ,322 ,322
	 ,317 ,317 ,312 ,312 ,307 ,307 ,312 ,312 ,312 ,312
	 ,317 ,312 ,312 ,312 ,307 ,307 ,307 ,307 ,312 ,312
	 ,317 ,322 ,327 ,332 ,337 ,337 ,342 ,337 ,337 ,332
	 ,332 ,327 ,327 ,327 ,327 ,327 ,327 ,327 ,327 ,327
	 ,327 ,327 ,327 ,322 ,322 ,322 ,322 ,322 ,322 ,317
	 ,317 ,312 ,307 ,302 ,302 ,302 ,302 ,302 ,307 ,312
	 ,317 ,322 ,322 ,322 ,322 ,322 ,322 ,317 ,322 ,322
	 ,322 ,327 ,332 ,332 ,337 ,337 ,342 ,342 ,347 ,352
	 ,357 ,362 ,367 ,367 ,372 ,372 ,367 ,367 ,362 ,357
	 ,357 ,352 ,347 ,342 ,337 ,327 ,322 ,312 ,302 ,292
	 ,283 ,278 ,273 ,273 ,268 ,268 ,263 ,258 ,258 ,253
	 ,248 ,243 ,238 ,238 ,238 ,233 ,233 ,228 ,228 ,228
	 ,223 ,223 ,218 ,218 ,218 ,218 ,218 ,218 ,218 ,218
	 ,223 ,223 ,223 ,228 ,228 ,228 ,223 ,218 ,208 ,198
	 ,188 ,178 ,168 ,163 ,163 ,168 ,183 ,208 ,243 ,292
	 ,357 ,432 ,521 ,615 ,710 ,794 ,859 ,903 ,918 ,898
	 ,849 ,764 ,660 ,541 ,422 ,312 ,213 ,144 ,94 ,74
	 ,69 ,84 ,109 ,134 ,158 ,178 ,188 ,193 ,193 ,193
	 ,188 ,188 ,188 ,193 ,193 ,198 ,198 ,203 ,203 ,198
	 ,198 ,198 ,198 ,203 ,203 ,208 ,208 ,213 ,213 ,213
	 ,213 ,208 ,208 ,203 ,203 ,203 ,203 ,203 ,203 ,203
	 ,203 ,203 ,203 ,208 ,208 ,208 ,213 ,213 ,218 ,218
	 ,218 ,218 ,218 ,223 ,223 ,223 ,223 ,223 ,223 ,228
	 ,233 ,233 ,238 ,243 ,248 ,253 ,253 ,253 ,253 ,253
	 ,253 ,248 ,248 ,253 ,258 ,263 ,273 ,283 ,292 ,302
	 ,307 ,312 ,317 ,317 ,317 ,322 ,322 ,327 ,332 ,342
	 ,352 ,362 ,372 ,377 ,387 ,387 ,392 ,392 ,397 ,397
	 ,397 ,397 ,397 ,392 ,392 ,387 ,377 ,372 ,367 ,357
	 ,357 ,352 ,347 ,342 ,337 ,327 ,322 ,307 ,297 ,288
	 ,278 ,268 ,263 ,258 ,253 ,253 ,248 ,243 ,233 ,223
	 ,213 ,198 ,188 ,173 ,168 ,158 ,153 ,153 ,153 ,148
	 ,148 ,148 ,148 ,144 ,144 ,139 ,134 ,134 ,129 ,124
	 ,124 ,124 ,129 ,134 ,139 ,139 ,144 ,148 ,153 ,158
	 ,158 ,158 ,163 ,163 ,163 ,163 ,158 ,158 ,153 ,148
	 ,148 ,144 ,139 ,139 ,139 ,139 ,144 ,148 ,148 ,153
	 ,153 ,158 ,158 ,158 ,153 ,153 ,153 ,148 ,148 ,144
	 ,144 ,144 ,144 ,144 ,148 ,148 ,153 ,153 ,158 ,158
	 ,158 ,158 ,158 ,153 ,153 ,148 ,144 ,139 ,139 ,134
	 ,134 ,139 ,139 ,139 ,144 ,144 ,139 ,139 ,134 ,134
	 ,129 ,124 ,124 ,124 ,124 ,129 ,134 ,134 ,139 ,139
	 ,144 ,144 ,144 ,144 ,139 ,139 ,139 ,139 ,139 ,144
	 ,144 ,144 ,144 ,144 ,139 ,134 ,129 ,124 ,119 ,119
	 ,119 ,124 ,124 ,129 ,134 ,134 ,134 ,129 ,129 ,124
	 ,119 ,119 ,114 ,114 ,114 ,119 ,119 ,119 ,119 ,119
	 ,119 ,124 ,124 ,124 ,129 ,134 ,139 ,144 ,148 ,153
	 ,158 ,163 ,168 ,168 ,173 ,173 ,173 ,173 ,173 ,173
	 ,173 ,178 ,183 ,188 ,188 ,193 ,193 ,193 ,188 ,183
	 ,173 ,168 ,163 ,153 ,148 ,144 ,139 ,134 ,129 ,124
	 ,124 ,124 ,124 ,129 ,134 ,139 ,144 ,144 ,148 ,148
	 ,144 ,144 ,139 ,134 ,129 ,124 ,124 ,119 ,119 ,119
	 ,114 ,114 ,109 ,109 ,104 ,104 ,104 ,109 ,109 ,114
	 ,114 ,114 ,114 ,114 ,114 ,114 ,114 ,109 ,109 ,104
	 ,99 ,94 ,84 ,79 ,74 ,79 ,89 ,119 ,168 ,233
	 ,312 ,407 ,501 ,595 ,675 ,734 ,769 ,779 ,754 ,705
	 ,630 ,541 ,437 ,337 ,238 ,153 ,84 ,34 ,9 ,0
	 ,4 ,24 ,49 ,74 ,94 ,114 ,124 ,129 ,134 ,134
	 ,134 ,134 ,134 ,139 ,139 ,144 ,148 ,153 ,158 ,158
	 ,158 ,158 ,158 ,158 ,158 ,158 ,158 ,158 ,158 ,163
	 ,163 ,163 ,158 ,158 ,158 ,158 ,163 ,163 ,168 ,173
	 ,178 ,183 ,188 ,188 ,188 ,188 ,188 ,183 ,183 ,183
	 ,188 ,188 ,193 ,193 ,198 ,198 ,198 ,198 ,198 ,203
	 ,208 ,213 ,218 ,228 ,238 ,243 ,248 ,253 ,258 ,258
	 ,258 ,258 ,258 ,263 ,268 ,273 ,278 ,283 ,288 ,288
	 ,292 ,292 ,297 ,302 ,312 ,322 ,332 ,342 ,352 ,362
	 ,367 ,372 ,377 ,377 ,382 ,387 ,387 ,392 ,392 ,397
	 ,397 ,397 ,392 ,392 ,392 ,392 ,392 ,392 ,387 ,382
	 ,377 ,367 ,357 ,342 ,327 ,312 ,302 ,292 ,288 ,283
	 ,278 ,268 ,263 ,253 ,243 ,228 ,218 ,208 ,198 ,188
	 ,183 ,178 ,173 ,163 ,158 ,153 ,148 ,148 ,148 ,148
	 ,148 ,148 ,153 ,148 ,148 ,139 ,134 ,124 ,119 ,114
	 ,114 ,114 ,119 ,124 ,134 ,139 ,148 ,153 ,158 ,163
	 ,163 ,163 ,158 ,158 ,153 ,153 ,153 ,148 ,148 ,153
	 ,153 ,153 ,158 ,158 ,163 ,163 ,163 ,158 ,158 ,153
	 ,148 ,148 ,144 ,144 ,144 ,144 ,148 ,148 ,148 ,148
	 ,148 ,148 ,148 ,148 ,153 ,158 ,163 ,168 ,173 ,173
	 ,178 ,178 ,173 ,168 ,168 ,163 ,158 ,158 ,158 ,163
	 ,163 ,163 ,163 ,158 ,158 ,153 ,148 ,144 ,144 ,144
	 ,148 ,153 ,158 ,163 ,163 ,168 ,163 ,163 ,158 ,158
	 ,158 ,158 ,158 ,158 ,163 ,163 ,163 ,163 ,163 ,163
	 ,163 ,163 ,163 ,168 ,168 ,168 ,168 ,168 ,163 ,158
	 ,158 ,153 ,153 ,153 ,153 ,153 ,153 ,158 ,158 ,163
	 ,168 ,173 ,173 ,178 ,178 ,178 ,178 ,178 ,173 ,173
	 ,173 ,173 ,178 ,183 ,188 ,198 ,203 ,208 ,213 ,213
	 ,208 ,208 ,208 ,208 ,208 ,208 ,208 ,203 ,198 ,188
	 ,178 ,168 ,158 ,148 ,144 ,139 ,139 ,139 ,144 ,144
	 ,148 ,148 ,153 ,153 ,153 ,153 ,153 ,153 ,153 ,153
	 ,148 ,148 ,144 ,144 ,144 ,144 ,153 ,158 ,173 ,183
	 ,193 ,203 ,213 ,223 ,228 ,233 ,233 ,238 ,238 ,243
	 ,243 ,248 ,248 ,248 ,253 ,253 ,258 ,258 ,258 ,258
	 ,258 ,258 ,258 ,268 ,283 ,307 ,347 ,397 ,456 ,531
	 ,605 ,680 ,744 ,799 ,834 ,849 ,839 ,809 ,749 ,675
	 ,585 ,491 ,402 ,317 ,253 ,203 ,178 ,168 ,178 ,203
	 ,233 ,263 ,288 ,307 ,317 ,322 ,317 ,317 ,312 ,307
	 ,307 ,307 ,307 ,307 ,307 ,307 ,307 ,307 ,307 ,307
	 ,307 ,312 ,317 ,322 ,327 ,327 ,327 ,327 ,322 ,322
	 ,317 ,312 ,312 ,317 ,317 ,322 ,327 ,332 ,332 ,332
	 ,332 ,332 ,332 ,332 ,332 ,337 ,337 ,342 ,342 ,342
	 ,342 ,342 ,342 ,342 ,337 ,342 ,342 ,347 ,352 ,357
	 ,362 ,367 ,367 ,367 ,367 ,367 ,367 ,367 ,367 ,372
	 ,372 ,377 ,377 ,382 ,382 ,382 ,382 ,387 ,392 ,397
	 ,402 ,407 ,417 ,422 ,427 ,432 ,437 ,437 ,441 ,446
	 ,451 ,456 ,466 ,471 ,471 ,476 ,476 ,471 ,466 ,461
	 ,456 ,451 ,446 ,441 ,437 ,427 ,422 ,412 ,407 ,397
	 ,392 ,392 ,387 ,387 ,382 ,377 ,372 ,362 ,352 ,337
	 ,327 ,312 ,302 ,292 ,288 ,283 ,278 ,278 ,278 ,273
	 ,273 ,268 ,268 ,263 ,263 ,258 ,253 ,248 ,243 ,233
	 ,228 ,218 ,213 ,208 ,203 ,203 ,203 ,203 ,208 ,208
	 ,213 ,208 ,208 ,208 ,203 ,198 ,198 ,198 ,198 ,203
	 ,208 ,213 ,218 ,218 ,218 ,218 ,213 ,203 ,198 ,193
	 ,188 ,188 ,193 ,193 ,203 ,208 ,213 ,213 ,218 ,218
	 ,213 ,213 ,213 ,213 ,213 ,213 ,218 ,218 ,218 ,218
	 ,213 ,208 ,203 ,203 ,198 ,198 ,198 ,198 ,203 ,203
	 ,208 ,208 ,208 ,203 ,203 ,198 ,198 ,198 ,198 ,203
	 ,203 ,203 ,203 ,203 ,198 ,193 ,188 ,183 ,183 ,183
	 ,183 ,188 ,188 ,193 ,198 ,198 ,193 ,193 ,188 ,183
	 ,183 ,183 ,188 ,193 ,198 ,203 ,208 ,208 ,203 ,203
	 ,193 ,188 ,183 ,178 ,173 ,173 ,178 ,183 ,188 ,193
	 ,198 ,198 ,203 ,198 ,198 ,198 ,193 ,193 ,198 ,198
	 ,203 ,213 ,218 ,228 ,233 ,238 ,243 ,243 ,243 ,238
	 ,233 ,228 ,223 ,218 ,213 ,213 ,213 ,208 ,208 ,208
	 ,208 ,208 ,203 ,198 ,198 ,193 ,188 ,188 ,183 ,178
	 ,173 ,173 ,168 ,168 ,163 ,163 ,163 ,163 ,163 ,163
	 ,158 ,153 ,148 ,148 ,144 ,144 ,144 ,148 ,148 ,153
	 ,158 ,158 ,158 ,158 ,158 ,158 ,163 ,163 ,168 ,173
	 ,173 ,178 ,173 ,168 ,163 ,153 ,144 ,134 ,124 ,119
	 ,119 ,124 ,134 ,148 ,173 ,203 ,248 ,297 ,362 ,432
	 ,506 ,576 ,635 ,685 ,710 ,710 ,685 ,635 ,566 ,476
	 ,382 ,292 ,208 ,144 ,94 ,64 ,49 ,54 ,64 ,84
	 ,104 ,119 ,134 ,144 ,153 ,153 ,158 ,163 ,168 ,173
	 ,178 ,188 ,193 ,193 ,198 ,198 ,198 ,193 ,188 ,188
	 ,183 ,178 ,178 ,173 ,168 ,168 ,163 ,163 ,168 ,168
	 ,173 ,183 ,193 ,198 ,208 ,213 ,213 ,218 ,218 ,213
	 ,213 ,208 ,208 ,208 ,208 ,208 ,208 ,208 ,208 ,208
	 ,208 ,208 ,213 ,213 ,218 ,223 ,228 ,238 ,243 ,248
	 ,253 ,258 ,263 ,263 ,263 ,263 ,263 ,263 ,263 ,268
	 ,268 ,268 ,273 ,273 ,283 ,288 ,297 ,307 ,317 ,322
	 ,332 ,337 ,342 ,342 ,347 ,347 ,347 ,347 ,347 ,352
	 ,357 ,367 ,372 ,377 ,382 ,387 ,392 ,392 ,392 ,387
	 ,387 ,382 ,372 ,367 ,362 ,357 ,352 ,347 ,347 ,342
	 ,342 ,337 ,332 ,322 ,312 ,297 ,283 ,268 ,253 ,238
	 ,228 ,218 ,213 ,208 ,208 ,203 ,203 ,198 ,193 ,188
	 ,183 ,183 ,178 ,178 ,178 ,178 ,178 ,183 ,183 ,188
	 ,188 ,188 ,188 ,188 ,183 ,183 ,183 ,183 ,183 ,183
	 ,183 ,183 ,178 ,173 ,173 ,168 ,163 ,163 ,163 ,168
	 ,168 ,173 ,178 ,173 ,173 ,168 ,163 ,153 ,148 ,148
	 ,153 ,158 ,163 ,173 ,178 ,183 ,183 ,178 ,173 ,168
	 ,163 ,158 ,158 ,163 ,168 ,173 ,178 ,183 ,183 ,183
	 ,183 ,178 ,178 ,173 ,173 ,178 ,178 ,178 ,178 ,183
	 ,178 ,178 ,178 ,178 ,173 ,173 ,173 ,168 ,168 ,163
	 ,158 ,153 ,148 ,148 ,144 ,144 ,148 ,153 ,158 ,163
	 ,168 ,173 ,173 ,173 ,168 ,163 ,158 ,153 ,153 ,148
	 ,148 ,148 ,153 ,153 ,158 ,158 ,158 ,158 ,158 ,158
	 ,158 ,158 ,158 ,158 ,163 ,163 ,168 ,168 ,173 ,173
	 ,173 ,178 ,178 ,178 ,183 ,188 ,188 ,193 ,193 ,193
	 ,193 ,193 ,188 ,188 ,188 ,188 ,193 ,193 ,198 ,198
	 ,203 ,203 ,203 ,203 ,203 ,203 ,203 ,198 ,198 ,198
	 ,193 ,188 ,183 ,178 ,173 ,163 ,153 ,144 ,139 ,134
	 ,129 ,124 ,124 ,129 ,129 ,134 ,134 ,139 ,134 ,134
	 ,129 ,124 ,119 ,114 ,114 ,109 ,109 ,114 ,114 ,114
	 ,119 ,119 ,119 ,119 ,124 ,124 ,124 ,124 ,124 ,124
	 ,124 ,124 ,124 ,129 ,134 ,134 ,139 ,139 ,134 ,129
	 ,119 ,104 ,94 ,84 ,79 ,84 ,104 ,134 ,178 ,238
	 ,307 ,387 ,471 ,556 ,635 ,700 ,754 ,779 ,779 ,749
	 ,690 ,600 ,496 ,382 ,268 ,168 ,94 ,39 ,14 ,14
	 ,29 ,54 ,84 ,109 ,129 ,139 ,144 ,144 ,144 ,144
	 ,148 ,153 ,158 ,163 ,163 ,163 ,158 ,153 ,153 ,148
	 ,148 ,148 ,153 ,153 ,158 ,153 ,153 ,148 ,139 ,134
	 ,134 ,134 ,134 ,144 ,148 ,158 ,163 ,173 ,178 ,178
	 ,183 ,183 ,188 ,188 ,193 ,193 ,193 ,198 ,193 ,193
	 ,193 ,193 ,193 ,193 ,193 ,198 ,203 ,203 ,208 ,213
	 ,213 ,213 ,213 ,218 ,218 ,218 ,223 ,223 ,228 ,233
	 ,238 ,243 ,248 ,253 ,258 ,268 ,278 ,283 ,297 ,307
	 ,317 ,322 ,332 ,332 ,337 ,337 ,337 ,337 ,337 ,342
	 ,342 ,352 ,357 ,367 ,372 ,377 ,382 ,387 ,387 ,382
	 ,382 ,377 ,377 ,377 ,377 ,382 ,387 ,392 ,397 ,402
	 ,407 ,407 ,407 ,407 ,402 ,397 ,387 ,382 ,377 ,372
	 ,362 ,357 ,352 ,347 ,347 ,342 ,342 ,337 ,337 ,332
	 ,327 ,322 ,317 ,312 ,302 ,297 ,297 ,292 ,292 ,292
	 ,292 ,292 ,292 ,292 ,288 ,288 ,283 ,283 ,283 ,283
	 ,283 ,283 ,283 ,278 ,278 ,273 ,268 ,268 ,263 ,263
	 ,263 ,263 ,268 ,268 ,273 ,273 ,278 ,278 ,273 ,273
	 ,273 ,268 ,273 ,273 ,278 ,278 ,283 ,283 ,288 ,288
	 ,288 ,283 ,283 ,283 ,288 ,288 ,292 ,292 ,292 ,297
	 ,297 ,297 ,297 ,297 ,292 ,292 ,292 ,292 ,288 ,288
	 ,283 ,278 ,278 ,273 ,273 ,273 ,268 ,268 ,268 ,268
	 ,263 ,263 ,258 ,258 ,258 ,258 ,258 ,258 ,258 ,253
	 ,248 ,243 ,238 ,228 ,223 ,223 ,223 ,223 ,223 ,228
	 ,233 ,233 ,233 ,233 ,233 ,228 ,228 ,228 ,223 ,223
	 ,218 ,218 ,218 ,213 ,213 ,208 ,208 ,203 ,203 ,203
	 ,198 ,198 ,198 ,198 ,198 ,198 ,198 ,198 ,203 ,208
	 ,208 ,213 ,218 ,218 ,223 ,223 ,218 ,218 ,213 ,208
	 ,203 ,198 ,193 ,188 ,188 ,188 ,193 ,198 ,203 ,208
	 ,213 ,218 ,223 ,228 ,233 ,238 ,238 ,243 ,243 ,243
	 ,238 ,233 ,223 ,213 ,198 ,183 ,173 ,158 ,153 ,144
	 ,144 ,139 ,144 ,144 ,148 ,148 ,148 ,148 ,148 ,148
	 ,148 ,148 ,148 ,148 ,148 ,144 ,144 ,144 ,139 ,139
	 ,134 ,134 ,134 ,134 ,134 ,134 ,139 ,139 ,139 ,139
	 ,139 ,139 ,139 ,139 ,134 ,134 ,129 ,129 ,124 ,124
	 ,119 ,114 ,109 ,104 ,99 ,99 ,104 ,119 ,144 ,188
	 ,243 ,312 ,397 ,491 ,585 ,675 ,754 ,814 ,849 ,849
	 ,819 ,759 ,670 ,561 ,446 ,332 ,223 ,139 ,79 ,44
	 ,29 ,39 ,59 ,84 ,114 ,134 ,148 ,158 ,163 ,168
	 ,168 ,168 ,173 ,178 ,183 ,183 ,188 ,188 ,183 ,178
	 ,173 ,173 ,173 ,173 ,173 ,178 ,183 ,188 ,188 ,188
	 ,188 ,188 ,188 ,183 ,183 ,178 ,178 ,183 ,183 ,183
	 ,188 ,193 ,193 ,198 ,203 ,203 ,208 ,208 ,213 ,213
	 ,208 ,208 ,203 ,203 ,203 ,203 ,208 ,213 ,223 ,233
	 ,238 ,248 ,253 ,253 ,253 ,253 ,253 ,253 ,253 ,258
	 ,263 ,268 ,273 ,278 ,283 ,288 ,292 ,297 ,307 ,312
	 ,322 ,332 ,342 ,352 ,357 ,362 ,362 ,362 ,362 ,362
	 ,362 ,362 ,367 ,372 ,382 ,387 ,392 ,392 ,397 ,392
	 ,392 ,392 ,387 ,387 ,387 ,392 ,392 ,392 ,397 ,392
	 ,387 ,382 ,372 ,362 ,347 ,337 ,327 ,322 ,312 ,307
	 ,307 ,302 ,297 ,292 ,288 ,278 ,268 ,258 ,253 ,243
	 ,238 ,233 ,228 ,223 ,218 ,213 ,208 ,203 ,198 ,198
	 ,198 ,198 ,198 ,203 ,203 ,203 ,203 ,198 ,198 ,193
	 ,188 ,188 ,183 ,183 ,183 ,183 ,178 ,178 ,178 ,173
	 ,173 ,168 ,168 ,168 ,168 ,168 ,168 ,163 ,163 ,163
	 ,163 ,163 ,163 ,163 ,168 ,173 ,178 ,183 ,188 ,193
	 ,193 ,198 ,198 ,198 ,198 ,198 ,198 ,193 ,193 ,188
	 ,183 ,178 ,178 ,173 ,168 ,168 ,168 ,168 ,173 ,178
	 ,178 ,183 ,188 ,193 ,193 ,193 ,193 ,193 ,188 ,183
	 ,183 ,178 ,178 ,178 ,178 ,178 ,183 ,183 ,183 ,178
	 ,178 ,173 ,168 ,163 ,163 ,158 ,158 ,158 ,163 ,168
	 ,173 ,178 ,178 ,183 ,183 ,183 ,178 ,173 ,173 ,168
	 ,163 ,158 ,158 ,158 ,158 ,163 ,163 ,168 ,168 ,168
	 ,168 ,173 ,173 ,173 ,173 ,178 ,178 ,178 ,183 ,183
	 ,183 ,183 ,183 ,178 ,178 ,178 ,178 ,178 ,178 ,178
	 ,183 ,183 ,183 ,183 ,183 ,178 ,178 ,178 ,178 ,178
	 ,178 ,178 ,183 ,183 ,188 ,188 ,193 ,193 ,193 ,193
	 ,193 ,193 ,198 ,198 ,203 ,208 ,213 ,218 ,223 ,228
	 ,233 ,233 ,233 ,233 ,233 ,233 ,228 ,228 ,223 ,218
	 ,218 ,213 ,208 ,203 ,198 ,188 ,183 ,178 ,173 ,173
	 ,173 ,173 ,173 ,173 ,173 ,173 ,168 ,168 ,168 ,163
	 ,163 ,163 ,158 ,158 ,158 ,158 ,158 ,158 ,158 ,153
	 ,158 ,158 ,158 ,163 ,163 ,163 ,163 ,158 ,153 ,148
	 ,144 ,139 ,134 ,134 ,134 ,139 ,144 ,148 ,148 ,144
	 ,139 ,129 ,119 ,109 ,114 ,124 ,144 ,183 ,233 ,297
	 ,372 ,456 ,541 ,625 ,700 ,764 ,809 ,829 ,819 ,779
	 ,715 ,625 ,521 ,407 ,297 ,198 ,124 ,74 ,49 ,44
	 ,59 ,84 ,114 ,139 ,153 ,163 ,168 ,163 ,163 ,163
	 ,163 ,168 ,178 ,183 ,193 ,193 ,193 ,188 ,183 ,178
	 ,173 ,168 ,173 ,173 ,183 ,188 ,193 ,198 ,203 ,203
	 ,203 ,203 ,203 ,203 ,203 ,203 ,203 ,203 ,203 ,208
	 ,208 ,208 ,213 ,213 ,218 ,218 ,223 ,223 ,223 ,218
	 ,218 ,218 ,223 ,223 ,233 ,238 ,248 ,253 ,258 ,263
	 ,263 ,263 ,258 ,258 ,253 ,258 ,263 ,268 ,278 ,283
	 ,292 ,297 ,297 ,302 ,297 ,297 ,297 ,302 ,307 ,312
	 ,322 ,332 ,337 ,347 ,352 ,357 ,362 ,362 ,367 ,367
	 ,372 ,377 ,382 ,387 ,392 ,397 ,407 ,412 ,417 ,422
	 ,427 ,427 ,422 ,417 ,412 ,402 ,397 ,387 ,382 ,377
	 ,372 ,367 ,362 ,352 ,342 ,327 ,312 ,297 ,288 ,278
	 ,273 ,268 ,268 ,268 ,268 ,263 ,258 ,253 ,243 ,228
	 ,218 ,208 ,198 ,198 ,193 ,193 ,193 ,193 ,193 ,193
	 ,188 ,183 ,183 ,178 ,173 ,168 ,163 ,158 ,158 ,153
	 ,148 ,148 ,148 ,153 ,153 ,158 ,163 ,168 ,173 ,173
	 ,173 ,173 ,173 ,168 ,168 ,168 ,168 ,168 ,173 ,173
	 ,173 ,173 ,168 ,168 ,168 ,163 ,163 ,168 ,168 ,168
	 ,173 ,173 ,173 ,173 ,173 ,173 ,173 ,173 ,173 ,173
	 ,178 ,178 ,183 ,183 ,183 ,188 ,183 ,183 ,183 ,178
	 ,178 ,178 ,178 ,178 ,183 ,183 ,188 ,188 ,188 ,188
	 ,183 ,183 ,178 ,173 ,168 ,168 ,168 ,168 ,173 ,178
	 ,183 ,188 ,193 ,193 ,188 ,183 ,178 ,173 ,163 ,163
	 ,158 ,163 ,168 ,173 ,188 ,198 ,213 ,223 ,233 ,243
	 ,253 ,258 ,263 ,263 ,268 ,268 ,268 ,273 ,273 ,273
	 ,278 ,278 ,278 ,273 ,273 ,273 ,273 ,273 ,273 ,273
	 ,273 ,278 ,283 ,283 ,288 ,288 ,288 ,288 ,283 ,283
	 ,278 ,273 ,273 ,268 ,268 ,268 ,273 ,278 ,283 ,288
	 ,297 ,302 ,307 ,307 ,307 ,307 ,307 ,302 ,302 ,302
	 ,302 ,302 ,307 ,312 ,317 ,322 ,327 ,327 ,332 ,332
	 ,332 ,332 ,332 ,332 ,332 ,327 ,327 ,322 ,317 ,312
	 ,302 ,292 ,283 ,273 ,263 ,253 ,248 ,248 ,243 ,243
	 ,248 ,248 ,253 ,253 ,253 ,253 ,253 ,248 ,248 ,248
	 ,243 ,238 ,233 ,228 ,223 ,218 ,213 ,213 ,208 ,208
	 ,203 ,203 ,203 ,208 ,208 ,208 ,208 ,213 ,213 ,213
	 ,213 ,213 ,213 ,213 ,213 ,213 ,208 ,203 ,193 ,188
	 ,178 ,173 ,178 ,188 ,213 ,248 ,302 ,367 ,446 ,531
	 ,620 ,710 ,784 ,844 ,874 ,878 ,849 ,794 ,710 ,605
	 ,491 ,377 ,278 ,193 ,129 ,94 ,79 ,84 ,104 ,124
	 ,148 ,168 ,178 ,188 ,188 ,188 ,188 ,188 ,193 ,198
	 ,203 ,208 ,208 ,208 ,203 ,198 ,193 ,188 ,188 ,188
	 ,193 ,198 ,203 ,208 ,208 ,208 ,203 ,198 ,193 ,193
	 ,193 ,193 ,198 ,208 ,213 ,223 ,228 ,228 ,228 ,228
	 ,228 ,223 ,223 ,223 ,223 ,223 ,228 ,228 ,233 ,238
	 ,238 ,238 ,238 ,233 ,233 ,228 ,228 ,228 ,228 ,228
	 ,233 ,238 ,238 ,238 ,243 ,243 ,243 ,248 ,253 ,258
	 ,268 ,278 ,288 ,297 ,307 ,317 ,322 ,332 ,337 ,342
	 ,347 ,352 ,357 ,362 ,367 ,367 ,372 ,372 ,372 ,372
	 ,377 ,377 ,382 ,387 ,392 ,397 ,402 ,402 ,407 ,407
	 ,402 ,402 ,397 ,392 ,387 ,377 ,372 ,367 ,357 ,352
	 ,342 ,327 ,317 ,307 ,292 ,283 ,273 ,268 ,258 ,253
	 ,248 ,243 ,238 ,228 ,218 ,213 ,203 ,198 ,193 ,188
	 ,183 ,183 ,178 ,178 ,173 ,163 ,158 ,148 ,144 ,139
	 ,134 ,134 ,134 ,139 ,139 ,144 ,144 ,144 ,144 ,144
	 ,144 ,139 ,139 ,144 ,144 ,148 ,148 ,153 ,153 ,153
	 ,153 ,148 ,148 ,148 ,153 ,153 ,153 ,153 ,153 ,153
	 ,153 ,148 ,148 ,148 ,148 ,153 ,158 ,163 ,168 ,173
	 ,178 ,178 ,178 ,178 ,173 ,168 ,168 ,163 ,163 ,163
	 ,168 ,168 ,173 ,173 ,178 ,178 ,178 ,173 ,173 ,168
	 ,168 ,163 ,158 ,158 ,158 ,158 ,158 ,158 ,158 ,158
	 ,158 ,158 ,158 ,158 ,153 ,153 ,153 ,153 ,153 ,153
	 ,153 ,153 ,153 ,153 ,153 ,153 ,148 ,148 ,148 ,144
	 ,144 ,144 ,148 ,148 ,153 ,153 ,158 ,158 ,158 ,158
	 ,153 ,148 ,148 ,144 ,144 ,139 ,139 ,144 ,144 ,144
	 ,144 ,139 ,139 ,134 ,134 ,134 ,134 ,139 ,139 ,148
	 ,153 ,153 ,158 ,153 ,153 ,148 ,144 ,139 ,134 ,134
	 ,134 ,139 ,139 ,139 ,144 ,144 ,139 ,139 ,139 ,139
	 ,139 ,144 ,148 ,153 ,158 ,168 ,168 ,173 ,173 ,173
	 ,168 ,168 ,163 ,163 ,163 ,163 ,163 ,163 ,168 ,173
	 ,178 ,183 ,188 ,198 ,203 ,208 ,213 ,213 ,213 ,213
	 ,208 ,208 ,208 ,208 ,213 ,218 ,218 ,223 ,223 ,223
	 ,218 ,208 ,198 ,188 ,178 ,168 ,163 ,158 ,153 ,158
	 ,158 ,163 ,163 ,163 ,168 ,163 ,163 ,163 ,163 ,158
	 ,158 ,158 ,158 ,153 ,153 ,148 ,148 ,144 ,144 ,144
	 ,144 ,144 ,148 ,153 ,153 ,158 ,158 ,153 ,148 ,144
	 ,139 ,134 ,129 ,124 ,124 ,124 ,124 ,124 ,124 ,124
	 ,119 ,114 ,114 ,119 ,134 ,158 ,198 ,253 ,317 ,397
	 ,481 ,566 ,650 ,730 ,789 ,834 ,849 ,839 ,799 ,730
	 ,640 ,531 ,422 ,312 ,213 ,139 ,89 ,64 ,64 ,79
	 ,104 ,134 ,158 ,178 ,188 ,193 ,188 ,183 ,178 ,178
	 ,178 ,178 ,183 ,183 ,183 ,183 ,178 ,173 ,173 ,173
	 ,178 ,188 ,198 ,208 ,213 ,213 ,213 ,208 ,203 ,198
	 ,193 ,193 ,198 ,203 ,213 ,223 ,233 ,238 ,238 ,238
	 ,233 ,233 ,228 ,223 ,223 ,223 ,223 ,223 ,228 ,228
	 ,228 ,228 ,233 ,233 ,238 ,238 ,243 ,248 ,248 ,248
	 ,253 ,253 ,253 ,253 ,253 ,258 ,263 ,268 ,273 ,278
	 ,283 ,288 ,292 ,292 ,297 ,297 ,302 ,312 ,317 ,327
	 ,342 ,352 ,367 ,377 ,387 ,392 ,397 ,397 ,397 ,397
	 ,397 ,402 ,407 ,412 ,417 ,427 ,432 ,437 ,441 ,441
	 ,441 ,437 ,432 ,432 ,432 ,427 ,427 ,422 ,417 ,412
	 ,402 ,392 ,377 ,367 ,357 ,347 ,337 ,332 ,327 ,317
	 ,312 ,302 ,292 ,283 ,273 ,263 ,258 ,253 ,248 ,248
	 ,243 ,243 ,238 ,233 ,223 ,218 ,213 ,213 ,208 ,208
	 ,213 ,213 ,213 ,213 ,213 ,208 ,208 ,208 ,208 ,208
	 ,208 ,208 ,208 ,213 ,213 ,213 ,213 ,213 ,213 ,213
	 ,213 ,213 ,208 ,208 ,203 ,193 ,188 ,188 ,183 ,188
	 ,193 ,198 ,208 ,218 ,228 ,233 ,233 ,233 ,228 ,223
	 ,218 ,213 ,208 ,213 ,218 ,223 ,233 ,238 ,243 ,248
	 ,248 ,243 ,238 ,233 ,223 ,213 ,208 ,203 ,198 ,198
	 ,198 ,198 ,198 ,203 ,208 ,213 ,213 ,218 ,218 ,223
	 ,223 ,218 ,218 ,213 ,208 ,208 ,203 ,203 ,198 ,198
	 ,198 ,198 ,198 ,198 ,198 ,198 ,198 ,198 ,193 ,193
	 ,193 ,193 ,193 ,193 ,193 ,193 ,193 ,193 ,193 ,193
	 ,193 ,193 ,188 ,188 ,188 ,188 ,188 ,188 ,193 ,193
	 ,193 ,193 ,188 ,188 ,193 ,193 ,193 ,193 ,193 ,198
	 ,198 ,198 ,198 ,198 ,203 ,203 ,203 ,203 ,203 ,203
	 ,198 ,198 ,198 ,198 ,198 ,198 ,198 ,193 ,193 ,193
	 ,188 ,183 ,183 ,178 ,173 ,173 ,173 ,178 ,178 ,183
	 ,188 ,193 ,198 ,203 ,203 ,208 ,213 ,213 ,218 ,218
	 ,218 ,218 ,218 ,218 ,218 ,218 ,218 ,213 ,213 ,213
	 ,213 ,213 ,218 ,223 ,228 ,233 ,238 ,243 ,248 ,248
	 ,248 ,243 ,243 ,238 ,233 ,233 ,228 ,223 ,223 ,218
	 ,213 ,213 ,208 ,203 ,198 ,198 ,193 ,193 ,188 ,188
	 ,183 ,183 ,178 ,178 ,178 ,178 ,178 ,178 ,178 ,178
	 ,173 ,173 ,168 ,168 ,163 ,163 ,163 ,163 ,163 ,168
	 ,168 ,168 ,168 ,168 ,168 ,163 ,163 ,158 ,158 ,158
	 ,163 ,168 ,168 ,168 ,168 ,168 ,163 ,153 ,148 ,139
	 ,134 ,139 ,148 ,168 ,203 ,248 ,307 ,377 ,461 ,546
	 ,630 ,715 ,784 ,839 ,874 ,878 ,854 ,799 ,720 ,620
	 ,516 ,407 ,302 ,218 ,153 ,109 ,89 ,84 ,99 ,119
	 ,139 ,158 ,178 ,188 ,193 ,193 ,193 ,193 ,188 ,188
	 ,183 ,183 ,183 ,183 ,178 ,178 ,173 ,173 ,173 ,173
	 ,173 ,173 ,178 ,178 ,183 ,188 ,188 ,193 ,198 ,203
	 ,208 ,208 ,208 ,208 ,208 ,203 ,203 ,198 ,198 ,198
	 ,198 ,203 ,208 ,213 ,218 ,223 ,228 ,233 ,238 ,243
	 ,248 ,248 ,248 ,243 ,243 ,243 ,238 ,238 ,243 ,243
	 ,248 ,253 ,258 ,263 ,263 ,268 ,268 ,268 ,268 ,273
	 ,273 ,278 ,283 ,292 ,297 ,307 ,312 ,322 ,327 ,332
	 ,337 ,342 ,352 ,357 ,362 ,372 ,377 ,382 ,392 ,397
	 ,402 ,402 ,407 ,412 ,417 ,422 ,427 ,432 ,432 ,432
	 ,432 ,432 ,432 ,427 ,427 ,417 ,412 ,402 ,387 ,377
	 ,362 ,347 ,337 ,327 ,317 ,312 ,302 ,297 ,292 ,283
	 ,273 ,268 ,258 ,253 ,248 ,243 ,238 ,233 ,233 ,228
	 ,223 ,218 ,218 ,213 ,208 ,208 ,203 ,203 ,203 ,198
	 ,198 ,193 ,193 ,188 ,188 ,183 ,183 ,178 ,178 ,173
	 ,168 ,168 ,163 ,158 ,158 ,158 ,158 ,163 ,168 ,178
	 ,183 ,193 ,198 ,203 ,208 ,208 ,208 ,208 ,203 ,198
	 ,193 ,188 ,183 ,178 ,178 ,178 ,178 ,183 ,183 ,188
	 ,188 ,188 ,188 ,188 ,188 ,188 ,183 ,183 ,183 ,183
	 ,188 ,193 ,193 ,198 ,203 ,203 ,203 ,203 ,203 ,198
	 ,193 ,193 ,188 ,188 ,188 ,193 ,198 ,203 ,208 ,213
	 ,218 ,223 ,223 ,228 ,228 ,228 ,223 ,223 ,218 ,218
	 ,213 ,208 ,203 ,203 ,198 ,193 ,188 ,188 ,188 ,188
	 ,193 ,193 ,198 ,203 ,203 ,208 ,208 ,208 ,208 ,203
	 ,203 ,198 ,198 ,198 ,198 ,198 ,198 ,203 ,203 ,208
	 ,208 ,203 ,203 ,198 ,198 ,193 ,193 ,188 ,188 ,188
	 ,188 ,188 ,188 ,188 ,188 ,188 ,188 ,188 ,188 ,188
	 ,193 ,193 ,193 ,193 ,193 ,188 ,188 ,183 ,183 ,178
	 ,173 ,173 ,173 ,173 ,173 ,173 ,178 ,183 ,183 ,183
	 ,188 ,188 ,188 ,188 ,188 ,188 ,183 ,183 ,183 ,183
	 ,183 ,183 ,178 ,178 ,173 ,168 ,168 ,163 ,163 ,168
	 ,173 ,178 ,183 ,193 ,198 ,208 ,213 ,213 ,213 ,213
	 ,213 ,208 ,203 ,198 ,198 ,193 ,193 ,198 ,198 ,203
	 ,203 ,208 ,218 ,223 ,228 ,233 ,238 ,243 ,243 ,243
	 ,243 ,238 ,233 ,228 ,218 ,208 ,198 ,193 ,188 ,178
	 ,178 ,173 ,168 ,168 ,163 ,163 ,163 ,158 ,158 ,158
	 ,158 ,153 ,153 ,153 ,153 ,153 ,158 ,158 ,158 ,163
	 ,163 ,163 ,168 ,163 ,163 ,163 ,158 ,158 ,153 ,153
	 ,148 ,148 ,148 ,148 ,144 ,144 ,144 ,148 ,148 ,148
	 ,153 ,148 ,148 ,144 ,134 ,124 ,114 ,109 ,104 ,114
	 ,129 ,158 ,203 ,258 ,327 ,402 ,486 ,571 ,655 ,730
	 ,789 ,834 ,849 ,839 ,794 ,725 ,630 ,521 ,412 ,302
	 ,213 ,144 ,99 ,74 ,74 ,89 ,109 ,129 ,148 ,158
	 ,163 ,163 ,163 ,163 ,163 ,163 ,173 ,178 ,183 ,188
	 ,193 ,193 ,193 ,188 ,183 ,183 ,178 ,178 ,178 ,183
	 ,188 ,188 ,193 ,198 ,198 ,198 ,198 ,198 ,198 ,198
	 ,198 ,198 ,198 ,203 ,203 ,213 ,218 ,223 ,228 ,228
	 ,233 ,233 ,233 ,233 ,228 ,228 ,228 ,228 ,233 ,233
	 ,233 ,233 ,233 ,233 ,233 ,233 ,233 ,238 ,243 ,253
	 ,263 ,273 ,283 ,292 ,297 ,302 ,302 ,302 ,302 ,297
	 ,297 ,297 ,297 ,302 ,307 ,317 ,327 ,332 ,342 ,347
	 ,357 ,362 ,367 ,372 ,377 ,382 ,387 ,392 ,397 ,402
	 ,407 ,412 ,412 ,417 ,417 ,417 ,417 ,422 ,422 ,422
	 ,422 ,422 ,417 ,412 ,407 ,402 ,392 ,387 ,377 ,367
	 ,362 ,347 ,337 ,327 ,312 ,297 ,288 ,278 ,268 ,258
	 ,253 ,248 ,248 ,243 ,243 ,238 ,233 ,228 ,223 ,218
	 ,213 ,208 ,203 ,203 ,198 ,198 ,198 ,198 ,193 ,193
	 ,188 ,188 ,188 ,188 ,188 ,188 ,188 ,188 ,183 ,183
	 ,178 ,178 ,173 ,168 ,168 ,168 ,173 ,178 ,183 ,188
	 ,193 ,198 ,203 ,203 ,208 ,208 ,208 ,208 ,203 ,198
	 ,193 ,188 ,183 ,183 ,178 ,178 ,178 ,178 ,178 ,183
	 ,183 ,183 ,188 ,188 ,188 ,193 ,193 ,193 ,198 ,198
	 ,198 ,198 ,198 ,198 ,198 ,198 ,198 ,203 ,203 ,208
	 ,213 ,213 ,218 ,218 ,213 ,213 ,208 ,208 ,203 ,198
	 ,193 ,193 ,193 ,188 ,188 ,188 ,188 ,188 ,188 ,188
	 ,188 ,188 ,188 ,188 ,188 ,193 ,193 ,198 ,198 ,203
	 ,203 ,203 ,198 ,193 ,188 ,183 ,178 ,178 ,178 ,178
	 ,183 ,188 ,193 ,198 ,203 ,203 ,198 ,193 ,188 ,183
	 ,183 ,178 ,178 ,183 ,183 ,188 ,193 ,193 ,193 ,188
	 ,188 ,183 ,178 ,178 ,178 ,178 ,183 ,188 ,188 ,193
	 ,193 ,193 ,188 ,183 ,178 ,173 ,173 ,173 ,178 ,183
	 ,188 ,193 ,193 ,198 ,198 ,193 ,193 ,188 ,183 ,183
	 ,178 ,178 ,178 ,178 ,178 ,183 ,183 ,183 ,183 ,188
	 ,183 ,183 ,183 ,183 ,183 ,188 ,193 ,198 ,203 ,213
	 ,218 ,223 ,223 ,223 ,223 ,218 ,208 ,203 ,203 ,203
	 ,208 ,213 ,228 ,238 ,253 ,263 ,268 ,273 ,268 ,263
	 ,253 ,243 ,238 ,228 ,223 ,223 ,223 ,223 ,223 ,223
	 ,223 ,223 ,218 ,213 ,208 ,198 ,188 ,183 ,178 ,168
	 ,168 ,163 ,163 ,163 ,168 ,168 ,168 ,168 ,168 ,168
	 ,168 ,173 ,173 ,178 ,183 ,188 ,188 ,188 ,188 ,183
	 ,178 ,173 ,168 ,168 ,163 ,163 ,158 ,158 ,158 ,153
	 ,153 ,153 ,153 ,158 ,163 ,173 ,178 ,178 ,178 ,173
	 ,163 ,148 ,139 ,134 ,139 ,153 ,183 ,228 ,288 ,352
	 ,432 ,511 ,585 ,660 ,725 ,774 ,799 ,804 ,779 ,730
	 ,655 ,561 ,456 ,347 ,248 ,163 ,104 ,69 ,59 ,69
	 ,89 ,119 ,144 ,168 ,183 ,188 ,193 ,193 ,198 ,198
	 ,203 ,208 ,208 ,213 ,218 ,218 ,218 ,213 ,213 ,218
	 ,218 ,223 ,228 ,228 ,233 ,233 ,228 ,228 ,223 ,218
	 ,218 ,223 ,228 ,228 ,233 ,238 ,238 ,238 ,238 ,238
	 ,233 ,233 ,233 ,233 ,233 ,233 ,238 ,238 ,243 ,243
	 ,248 ,253 ,258 ,263 ,268 ,273 ,278 ,278 ,278 ,273
	 ,273 ,268 ,273 ,273 ,278 ,283 ,288 ,292 ,297 ,297
	 ,302 ,302 ,307 ,307 ,312 ,317 ,327 ,332 ,337 ,342
	 ,347 ,352 ,357 ,362 ,362 ,367 ,377 ,382 ,392 ,402
	 ,412 ,417 ,427 ,432 ,437 ,437 ,441 ,441 ,441 ,441
	 ,437 ,437 ,432 ,427 ,427 ,422 ,417 ,417 ,417 ,412
	 ,412 ,407 ,402 ,397 ,387 ,377 ,367 ,357 ,347 ,337
	 ,327 ,317 ,307 ,297 ,288 ,278 ,268 ,253 ,243 ,233
	 ,223 ,218 ,218 ,218 ,218 ,218 ,218 ,218 ,218 ,213
	 ,213 ,208 ,208 ,208 ,208 ,208 ,203 ,203 ,203 ,198
	 ,198 ,193 ,193 ,193 ,193 ,193 ,198 ,203 ,208 ,208
	 ,208 ,208 ,203 ,203 ,198 ,198 ,198 ,193 ,198 ,198
	 ,198 ,198 ,198 ,198 ,198 ,203 ,203 ,203 ,208 ,208
	 ,213 ,213 ,213 ,213 ,213 ,213 ,213 ,213 ,213 ,218
	 ,218 ,223 ,223 ,223 ,223 ,218 ,213 ,208 ,203 ,198
	 ,193 ,198 ,198 ,203 ,203 ,208 ,208 ,208 ,208 ,208
	 ,208 ,208 ,208 ,208 ,208 ,208 ,208 ,203 ,203 ,198
	 ,193 ,193 ,188 ,188 ,193 ,193 ,193 ,198 ,198 ,198
	 ,198 ,193 ,188 ,188 ,183 ,178 ,178 ,178 ,178 ,178
	 ,178 ,178 ,178 ,178 ,183 ,183 ,183 ,188 ,193 ,198
	 ,198 ,203 ,203 ,203 ,203 ,198 ,193 ,188 ,183 ,183
	 ,178 ,173 ,168 ,168 ,168 ,168 ,173 ,173 ,178 ,183
	 ,183 ,188 ,188 ,183 ,183 ,183 ,178 ,178 ,178 ,178
	 ,183 ,183 ,188 ,188 ,188 ,188 ,183 ,178 ,173 ,173
	 ,168 ,168 ,168 ,173 ,173 ,178 ,183 ,183 ,188 ,188
	 ,188 ,183 ,183 ,183 ,183 ,183 ,183 ,188 ,188 ,193
	 ,193 ,193 ,193 ,193 ,193 ,198 ,203 ,208 ,208 ,213
	 ,218 ,223 ,223 ,223 ,218 ,218 ,213 ,213 ,213 ,213
	 ,218 ,223 ,223 ,228 ,233 ,233 ,233 ,233 ,233 ,233
	 ,228 ,228 ,233 ,233 ,233 ,233 ,238 ,233 ,233 ,228
	 ,228 ,223 ,213 ,208 ,203 ,198 ,198 ,193 ,193 ,188
	 ,188 ,188 ,188 ,188 ,188 ,188 ,183 ,183 ,178 ,178
	 ,178 ,178 ,183 ,183 ,188 ,188 ,188 ,188 ,183 ,183
	 ,178 ,178 ,178 ,178 ,178 ,178 ,183 ,178 ,178 ,173
	 ,173 ,168 ,168 ,168 ,168 ,168 ,168 ,168 ,163 ,153
	 ,148 ,148 ,158 ,178 ,208 ,258 ,322 ,397 ,481 ,566
	 ,650 ,725 ,784 ,824 ,839 ,829 ,789 ,725 ,635 ,536
	 ,427 ,317 ,223 ,148 ,94 ,64 ,59 ,74 ,99 ,129
	 ,158 ,178 ,193 ,198 ,193 ,188 ,183 ,178 ,173 ,173
	 ,168 ,168 ,168 ,168 ,168 ,173 ,173 ,183 ,188 ,198
	 ,203 ,208 ,213 ,213 ,208 ,208 ,203 ,203 ,203 ,203
	 ,203 ,208 ,208 ,208 ,208 ,208 ,208 ,208 ,208 ,208
	 ,208 ,213 ,213 ,213 ,218 ,218 ,218 ,218 ,218 ,223
	 ,223 ,228 ,233 ,233 ,238 ,238 ,238 ,238 ,243 ,243
	 ,243 ,248 ,253 ,258 ,263 ,268 ,278 ,283 ,288 ,292
	 ,297 ,297 ,302 ,307 ,312 ,322 ,327 ,332 ,342 ,347
	 ,352 ,357 ,362 ,367 ,372 ,377 ,382 ,387 ,392 ,397
	 ,397 ,402 ,407 ,407 ,412 ,412 ,417 ,417 ,422 ,422
	 ,427 ,432 ,432 ,437 ,437 ,437 ,432 ,422 ,417 ,402
	 ,392 ,382 ,367 ,357 ,347 ,337 ,332 ,322 ,312 ,302
	 ,292 ,288 ,278 ,273 ,268 ,268 ,263 ,258 ,253 ,248
	 ,243 ,238 ,233 ,228 ,223 ,223 ,223 ,223 ,223 ,223
	 ,218 ,218 ,213 ,208 ,208 ,203 ,203 ,203 ,203 ,203
	 ,203 ,203 ,203 ,203 ,203 ,198 ,198 ,198 ,198 ,198
};