const short tabla[10000] = {477 ,477 ,457 ,457 ,457 ,457 ,457 ,477 ,477 ,477
	 ,496 ,496 ,496 ,496 ,516 ,516 ,516 ,516 ,536 ,536
	 ,536 ,536 ,536 ,536 ,536 ,536 ,536 ,556 ,556 ,556
	 ,556 ,576 ,576 ,576 ,576 ,596 ,596 ,596 ,596 ,596
	 ,616 ,616 ,636 ,655 ,655 ,675 ,675 ,695 ,695 ,695
	 ,695 ,675 ,675 ,695 ,695 ,715 ,735 ,735 ,755 ,775
	 ,795 ,815 ,834 ,854 ,894 ,914 ,954 ,974 ,1013 ,1033
	 ,1033 ,1053 ,1053 ,1053 ,1073 ,1073 ,1093 ,1113 ,1152 ,1192
	 ,1232 ,1272 ,1311 ,1331 ,1351 ,1371 ,1391 ,1411 ,1431 ,1431
	 ,1431 ,1431 ,1431 ,1411 ,1411 ,1391 ,1371 ,1351 ,1351 ,1331
	 ,1331 ,1331 ,1331 ,1311 ,1292 ,1272 ,1232 ,1192 ,1133 ,1093
	 ,1033 ,993 ,974 ,934 ,914 ,894 ,874 ,854 ,834 ,795
	 ,755 ,715 ,695 ,675 ,675 ,695 ,735 ,795 ,874 ,934
	 ,993 ,1033 ,1053 ,1073 ,1073 ,1053 ,1033 ,1033 ,1033 ,1033
	 ,1053 ,1053 ,1073 ,1093 ,1113 ,1133 ,1133 ,1133 ,1133 ,1152
	 ,1152 ,1172 ,1172 ,1192 ,1192 ,1212 ,1212 ,1212 ,1212 ,1212
	 ,1192 ,1192 ,1192 ,1172 ,1172 ,1172 ,1192 ,1192 ,1212 ,1212
	 ,1212 ,1232 ,1232 ,1232 ,1232 ,1212 ,1212 ,1212 ,1212 ,1192
	 ,1192 ,1192 ,1192 ,1192 ,1192 ,1172 ,1172 ,1172 ,1192 ,1192
	 ,1192 ,1212 ,1212 ,1232 ,1232 ,1232 ,1232 ,1212 ,1212 ,1192
	 ,1192 ,1172 ,1152 ,1152 ,1152 ,1133 ,1133 ,1133 ,1133 ,1133
	 ,1113 ,1113 ,1113 ,1093 ,1073 ,1073 ,1053 ,1053 ,1033 ,1033
	 ,1053 ,1053 ,1073 ,1093 ,1113 ,1113 ,1113 ,1113 ,1113 ,1113
	 ,1113 ,1113 ,1133 ,1133 ,1133 ,1133 ,1113 ,1093 ,1073 ,1053
	 ,1013 ,1013 ,1013 ,1013 ,1033 ,1073 ,1093 ,1093 ,1113 ,1113
	 ,1093 ,1073 ,1053 ,1033 ,1033 ,1053 ,1053 ,1073 ,1113 ,1133
	 ,1152 ,1172 ,1172 ,1172 ,1192 ,1172 ,1172 ,1172 ,1152 ,1152
	 ,1133 ,1113 ,1113 ,1093 ,1113 ,1133 ,1152 ,1172 ,1212 ,1232
	 ,1252 ,1272 ,1252 ,1232 ,1212 ,1192 ,1152 ,1133 ,1113 ,1093
	 ,1093 ,1073 ,1053 ,1013 ,993 ,974 ,974 ,954 ,954 ,974
	 ,993 ,993 ,1013 ,1013 ,1013 ,1013 ,1013 ,993 ,993 ,993
	 ,974 ,974 ,954 ,954 ,934 ,914 ,894 ,894 ,894 ,894
	 ,894 ,894 ,894 ,894 ,874 ,874 ,854 ,834 ,815 ,815
	 ,815 ,815 ,815 ,834 ,834 ,815 ,795 ,775 ,755 ,755
	 ,795 ,874 ,1033 ,1232 ,1490 ,1808 ,2146 ,2484 ,2802 ,3061
	 ,3279 ,3399 ,3419 ,3319 ,3140 ,2862 ,2504 ,2107 ,1689 ,1292
	 ,934 ,655 ,457 ,357 ,337 ,377 ,477 ,576 ,695 ,775
	 ,834 ,874 ,874 ,854 ,834 ,795 ,795 ,775 ,775 ,775
	 ,775 ,795 ,795 ,795 ,775 ,775 ,775 ,755 ,755 ,755
	 ,755 ,755 ,755 ,775 ,775 ,795 ,815 ,815 ,834 ,834
	 ,834 ,834 ,834 ,834 ,834 ,834 ,815 ,815 ,815 ,815
	 ,834 ,834 ,854 ,854 ,874 ,894 ,894 ,894 ,894 ,894
	 ,894 ,894 ,894 ,894 ,914 ,934 ,954 ,974 ,993 ,1013
	 ,1033 ,1033 ,1053 ,1053 ,1073 ,1093 ,1113 ,1133 ,1152 ,1192
	 ,1212 ,1212 ,1232 ,1232 ,1232 ,1232 ,1232 ,1252 ,1272 ,1292
	 ,1311 ,1351 ,1391 ,1411 ,1451 ,1471 ,1490 ,1490 ,1510 ,1510
	 ,1510 ,1510 ,1510 ,1530 ,1530 ,1550 ,1570 ,1590 ,1610 ,1630
	 ,1630 ,1610 ,1590 ,1550 ,1490 ,1451 ,1411 ,1391 ,1371 ,1351
	 ,1331 ,1311 ,1272 ,1232 ,1172 ,1113 ,1053 ,993 ,954 ,914
	 ,914 ,914 ,914 ,914 ,914 ,894 ,874 ,834 ,795 ,775
	 ,755 ,735 ,735 ,735 ,755 ,735 ,735 ,715 ,695 ,655
	 ,636 ,636 ,616 ,616 ,636 ,655 ,675 ,695 ,695 ,715
	 ,715 ,715 ,715 ,715 ,715 ,715 ,715 ,715 ,695 ,695
	 ,675 ,675 ,675 ,675 ,695 ,695 ,715 ,715 ,715 ,735
	 ,715 ,715 ,715 ,695 ,695 ,695 ,695 ,695 ,695 ,675
	 ,675 ,675 ,655 ,655 ,655 ,655 ,675 ,675 ,695 ,715
	 ,715 ,735 ,715 ,715 ,715 ,695 ,695 ,695 ,695 ,715
	 ,715 ,735 ,755 ,775 ,775 ,795 ,795 ,795 ,795 ,795
	 ,795 ,795 ,795 ,795 ,815 ,815 ,815 ,795 ,795 ,795
	 ,775 ,755 ,755 ,735 ,735 ,735 ,735 ,735 ,735 ,735
	 ,735 ,735 ,715 ,715 ,695 ,695 ,675 ,675 ,675 ,695
	 ,695 ,695 ,695 ,695 ,695 ,695 ,695 ,695 ,695 ,695
	 ,695 ,715 ,735 ,735 ,755 ,755 ,775 ,775 ,775 ,795
	 ,795 ,815 ,815 ,834 ,834 ,854 ,854 ,854 ,854 ,854
	 ,854 ,854 ,834 ,834 ,815 ,815 ,795 ,795 ,795 ,815
	 ,815 ,834 ,874 ,894 ,914 ,934 ,934 ,934 ,934 ,914
	 ,894 ,874 ,854 ,834 ,815 ,795 ,775 ,755 ,715 ,695
	 ,655 ,636 ,616 ,616 ,616 ,616 ,636 ,636 ,636 ,636
	 ,636 ,636 ,636 ,636 ,636 ,636 ,636 ,636 ,616 ,616
	 ,596 ,576 ,556 ,556 ,556 ,556 ,576 ,596 ,596 ,596
	 ,596 ,576 ,556 ,536 ,516 ,516 ,516 ,516 ,516 ,516
	 ,496 ,477 ,437 ,417 ,417 ,457 ,556 ,715 ,914 ,1172
	 ,1490 ,1828 ,2166 ,2504 ,2802 ,3041 ,3220 ,3299 ,3279 ,3140
	 ,2902 ,2564 ,2166 ,1729 ,1272 ,874 ,556 ,337 ,218 ,198
	 ,258 ,377 ,496 ,616 ,695 ,715 ,715 ,675 ,636 ,596
	 ,556 ,536 ,536 ,556 ,576 ,596 ,596 ,616 ,616 ,616
	 ,616 ,616 ,616 ,636 ,655 ,655 ,675 ,675 ,675 ,655
	 ,655 ,655 ,675 ,675 ,695 ,715 ,735 ,755 ,755 ,775
	 ,775 ,795 ,795 ,815 ,834 ,834 ,854 ,874 ,874 ,874
	 ,874 ,854 ,854 ,854 ,854 ,854 ,874 ,894 ,914 ,954
	 ,974 ,993 ,1013 ,1013 ,1013 ,1013 ,1013 ,993 ,993 ,974
	 ,974 ,993 ,1013 ,1033 ,1073 ,1113 ,1172 ,1212 ,1232 ,1272
	 ,1292 ,1311 ,1331 ,1351 ,1371 ,1391 ,1431 ,1451 ,1490 ,1510
	 ,1550 ,1570 ,1570 ,1590 ,1590 ,1590 ,1610 ,1630 ,1630 ,1630
	 ,1630 ,1630 ,1610 ,1590 ,1550 ,1530 ,1510 ,1490 ,1490 ,1490
	 ,1490 ,1490 ,1471 ,1451 ,1411 ,1371 ,1292 ,1232 ,1172 ,1113
	 ,1073 ,1053 ,1053 ,1033 ,1033 ,1013 ,1013 ,974 ,934 ,894
	 ,854 ,815 ,795 ,775 ,755 ,755 ,755 ,755 ,735 ,735
	 ,715 ,695 ,695 ,675 ,675 ,655 ,655 ,675 ,675 ,695
	 ,695 ,695 ,715 ,715 ,695 ,695 ,695 ,695 ,695 ,695
	 ,675 ,675 ,675 ,675 ,675 ,655 ,655 ,655 ,636 ,636
	 ,616 ,596 ,576 ,576 ,556 ,556 ,556 ,576 ,596 ,616
	 ,636 ,655 ,675 ,675 ,675 ,675 ,675 ,655 ,655 ,655
	 ,675 ,675 ,695 ,695 ,715 ,715 ,695 ,695 ,675 ,675
	 ,655 ,655 ,636 ,636 ,636 ,636 ,636 ,636 ,636 ,636
	 ,636 ,616 ,616 ,616 ,616 ,616 ,616 ,616 ,616 ,616
	 ,616 ,616 ,616 ,596 ,596 ,596 ,596 ,576 ,576 ,556
	 ,556 ,536 ,536 ,536 ,536 ,536 ,536 ,536 ,536 ,536
	 ,536 ,516 ,516 ,496 ,496 ,496 ,477 ,477 ,477 ,477
	 ,477 ,477 ,477 ,477 ,477 ,496 ,496 ,496 ,516 ,516
	 ,516 ,496 ,496 ,477 ,457 ,457 ,437 ,457 ,457 ,496
	 ,516 ,536 ,556 ,576 ,556 ,536 ,516 ,496 ,477 ,457
	 ,457 ,457 ,457 ,477 ,477 ,477 ,477 ,496 ,496 ,516
	 ,556 ,596 ,655 ,715 ,775 ,834 ,894 ,934 ,954 ,974
	 ,993 ,993 ,993 ,993 ,1013 ,1013 ,1033 ,1053 ,1093 ,1113
	 ,1133 ,1172 ,1192 ,1212 ,1232 ,1252 ,1252 ,1252 ,1272 ,1272
	 ,1272 ,1272 ,1252 ,1252 ,1252 ,1232 ,1232 ,1212 ,1192 ,1192
	 ,1172 ,1152 ,1152 ,1133 ,1113 ,1093 ,1093 ,1073 ,1053 ,1053
	 ,1053 ,1053 ,1053 ,1073 ,1073 ,1073 ,1073 ,1053 ,1033 ,1013
	 ,993 ,974 ,954 ,934 ,914 ,914 ,914 ,914 ,914 ,934
	 ,934 ,954 ,954 ,974 ,974 ,954 ,954 ,954 ,934 ,934
	 ,934 ,934 ,914 ,914 ,914 ,894 ,854 ,834 ,795 ,775
	 ,755 ,775 ,834 ,934 ,1093 ,1292 ,1550 ,1848 ,2166 ,2524
	 ,2882 ,3220 ,3518 ,3737 ,3856 ,3856 ,3737 ,3478 ,3120 ,2683
	 ,2206 ,1749 ,1331 ,993 ,755 ,636 ,596 ,636 ,715 ,795
	 ,894 ,954 ,974 ,993 ,993 ,993 ,993 ,1013 ,1033 ,1053
	 ,1053 ,1073 ,1073 ,1053 ,1033 ,1013 ,993 ,974 ,974 ,993
	 ,1013 ,1033 ,1053 ,1053 ,1073 ,1053 ,1053 ,1033 ,1033 ,1033
	 ,1013 ,1013 ,1013 ,1013 ,1013 ,1013 ,1013 ,1013 ,1013 ,1013
	 ,1033 ,1033 ,1053 ,1073 ,1093 ,1093 ,1113 ,1113 ,1113 ,1113
	 ,1113 ,1093 ,1093 ,1093 ,1113 ,1113 ,1113 ,1133 ,1133 ,1133
	 ,1152 ,1152 ,1172 ,1192 ,1212 ,1232 ,1252 ,1272 ,1292 ,1292
	 ,1311 ,1311 ,1311 ,1331 ,1351 ,1371 ,1411 ,1451 ,1490 ,1530
	 ,1590 ,1610 ,1649 ,1669 ,1669 ,1689 ,1689 ,1689 ,1689 ,1689
	 ,1709 ,1729 ,1749 ,1749 ,1769 ,1789 ,1789 ,1789 ,1769 ,1749
	 ,1729 ,1709 ,1689 ,1669 ,1669 ,1649 ,1630 ,1610 ,1570 ,1530
	 ,1471 ,1411 ,1351 ,1292 ,1232 ,1192 ,1152 ,1133 ,1113 ,1113
	 ,1093 ,1053 ,1033 ,993 ,954 ,914 ,874 ,854 ,834 ,815
	 ,815 ,795 ,795 ,775 ,735 ,715 ,695 ,675 ,675 ,675
	 ,675 ,695 ,695 ,695 ,675 ,655 ,636 ,616 ,576 ,576
	 ,576 ,576 ,596 ,616 ,636 ,636 ,636 ,616 ,596 ,576
	 ,556 ,536 ,536 ,536 ,536 ,576 ,596 ,636 ,655 ,675
	 ,695 ,675 ,675 ,655 ,636 ,616 ,596 ,596 ,576 ,576
	 ,576 ,596 ,596 ,616 ,616 ,636 ,636 ,655 ,655 ,655
	 ,655 ,636 ,636 ,616 ,596 ,596 ,596 ,596 ,596 ,616
	 ,616 ,636 ,636 ,636 ,636 ,636 ,616 ,616 ,616 ,616
	 ,616 ,616 ,616 ,616 ,596 ,576 ,576 ,556 ,556 ,536
	 ,536 ,536 ,556 ,556 ,556 ,576 ,576 ,576 ,576 ,576
	 ,556 ,556 ,556 ,576 ,576 ,596 ,616 ,636 ,655 ,655
	 ,675 ,675 ,675 ,655 ,636 ,616 ,576 ,556 ,556 ,536
	 ,556 ,556 ,576 ,616 ,616 ,636 ,636 ,636 ,616 ,596
	 ,596 ,576 ,556 ,556 ,556 ,556 ,556 ,556 ,556 ,556
	 ,536 ,536 ,536 ,536 ,536 ,536 ,536 ,536 ,536 ,556
	 ,556 ,556 ,576 ,596 ,596 ,616 ,636 ,636 ,655 ,655
	 ,636 ,636 ,616 ,596 ,576 ,576 ,576 ,576 ,576 ,596
	 ,596 ,616 ,616 ,616 ,616 ,616 ,616 ,596 ,596 ,596
	 ,616 ,616 ,616 ,636 ,636 ,655 ,655 ,675 ,675 ,675
	 ,675 ,675 ,675 ,655 ,636 ,616 ,616 ,596 ,596 ,596
	 ,616 ,636 ,636 ,655 ,655 ,655 ,655 ,655 ,655 ,655
	 ,675 ,675 ,695 ,695 ,715 ,715 ,715 ,715 ,715 ,715
	 ,715 ,715 ,715 ,735 ,735 ,755 ,755 ,775 ,775 ,795
	 ,815 ,834 ,854 ,854 ,874 ,894 ,914 ,914 ,914 ,914
	 ,914 ,914 ,894 ,894 ,894 ,894 ,894 ,894 ,894 ,894
	 ,874 ,874 ,854 ,834 ,815 ,775 ,755 ,715 ,695 ,655
	 ,636 ,636 ,616 ,616 ,636 ,655 ,655 ,675 ,695 ,695
	 ,715 ,715 ,695 ,695 ,675 ,675 ,655 ,636 ,636 ,616
	 ,596 ,596 ,596 ,596 ,596 ,596 ,596 ,596 ,596 ,596
	 ,596 ,596 ,616 ,616 ,636 ,636 ,655 ,655 ,655 ,636
	 ,616 ,596 ,576 ,556 ,556 ,576 ,616 ,695 ,815 ,993
	 ,1212 ,1471 ,1789 ,2146 ,2504 ,2862 ,3160 ,3419 ,3578 ,3598
	 ,3518 ,3279 ,2942 ,2524 ,2047 ,1590 ,1152 ,795 ,536 ,397
	 ,337 ,337 ,397 ,496 ,576 ,636 ,695 ,735 ,755 ,755
	 ,775 ,795 ,815 ,834 ,854 ,874 ,874 ,874 ,854 ,854
	 ,834 ,834 ,834 ,834 ,834 ,834 ,854 ,834 ,834 ,834
	 ,834 ,854 ,854 ,874 ,874 ,894 ,894 ,914 ,914 ,914
	 ,914 ,894 ,894 ,894 ,914 ,894 ,894 ,894 ,894 ,894
	 ,894 ,894 ,894 ,914 ,934 ,954 ,974 ,993 ,993 ,1013
	 ,1013 ,1033 ,1033 ,1053 ,1073 ,1093 ,1133 ,1152 ,1172 ,1172
	 ,1192 ,1192 ,1192 ,1192 ,1192 ,1212 ,1232 ,1272 ,1292 ,1311
	 ,1351 ,1371 ,1391 ,1411 ,1431 ,1451 ,1471 ,1510 ,1530 ,1570
	 ,1590 ,1630 ,1649 ,1669 ,1669 ,1689 ,1709 ,1709 ,1729 ,1749
	 ,1769 ,1769 ,1789 ,1808 ,1828 ,1828 ,1828 ,1808 ,1789 ,1749
	 ,1709 ,1649 ,1610 ,1550 ,1510 ,1490 ,1471 ,1471 ,1471 ,1471
	 ,1451 ,1431 ,1391 ,1331 ,1252 ,1192 ,1113 ,1053 ,1013 ,993
	 ,993 ,993 ,993 ,993 ,993 ,974 ,934 ,914 ,874 ,834
	 ,834 ,815 ,815 ,815 ,815 ,815 ,815 ,815 ,795 ,795
	 ,775 ,755 ,735 ,735 ,735 ,735 ,735 ,735 ,755 ,755
	 ,755 ,735 ,735 ,715 ,715 ,715 ,715 ,715 ,735 ,735
	 ,755 ,775 ,795 ,815 ,815 ,795 ,775 ,755 ,735 ,715
	 ,695 ,695 ,675 ,675 ,675 ,675 ,695 ,715 ,735 ,735
	 ,755 ,755 ,755 ,755 ,735 ,735 ,715 ,715 ,715 ,715
	 ,735 ,775 ,815 ,834 ,854 ,874 ,874 ,854 ,834 ,815
	 ,775 ,755 ,755 ,755 ,755 ,775 ,795 ,815 ,815 ,834
	 ,834 ,834 ,834 ,815 ,815 ,795 ,795 ,775 ,775 ,755
	 ,755 ,735 ,735 ,715 ,695 ,695 ,695 ,695 ,715 ,735
	 ,755 ,775 ,795 ,795 ,795 ,775 ,755 ,715 ,695 ,655
	 ,655 ,636 ,636 ,655 ,655 ,675 ,675 ,675 ,675 ,655
	 ,655 ,636 ,636 ,636 ,655 ,655 ,675 ,695 ,715 ,715
	 ,735 ,735 ,735 ,735 ,735 ,735 ,715 ,715 ,695 ,675
	 ,655 ,636 ,636 ,616 ,616 ,636 ,655 ,675 ,695 ,715
	 ,715 ,715 ,695 ,675 ,675 ,655 ,636 ,616 ,596 ,596
	 ,576 ,576 ,576 ,576 ,576 ,576 ,596 ,596 ,616 ,616
	 ,636 ,655 ,655 ,675 ,675 ,675 ,675 ,675 ,655 ,655
	 ,636 ,636 ,636 ,655 ,655 ,675 ,695 ,715 ,755 ,775
	 ,795 ,795 ,815 ,834 ,854 ,874 ,894 ,934 ,954 ,974
	 ,993 ,1013 ,1013 ,1033 ,1033 ,1053 ,1053 ,1073 ,1093 ,1113
	 ,1113 ,1133 ,1152 ,1172 ,1172 ,1172 ,1172 ,1172 ,1172 ,1172
	 ,1192 ,1192 ,1212 ,1232 ,1252 ,1272 ,1292 ,1292 ,1311 ,1331
	 ,1351 ,1371 ,1371 ,1391 ,1391 ,1391 ,1391 ,1391 ,1391 ,1371
	 ,1351 ,1331 ,1331 ,1331 ,1311 ,1311 ,1311 ,1311 ,1311 ,1311
	 ,1292 ,1272 ,1272 ,1252 ,1232 ,1232 ,1232 ,1212 ,1212 ,1192
	 ,1172 ,1152 ,1133 ,1113 ,1093 ,1093 ,1073 ,1073 ,1093 ,1093
	 ,1073 ,1073 ,1053 ,1033 ,1013 ,993 ,974 ,974 ,974 ,993
	 ,1013 ,1033 ,1053 ,1073 ,1093 ,1093 ,1093 ,1073 ,1053 ,1033
	 ,1013 ,993 ,993 ,993 ,993 ,993 ,993 ,993 ,974 ,954
	 ,914 ,894 ,874 ,874 ,914 ,993 ,1113 ,1292 ,1510 ,1769
	 ,2067 ,2385 ,2703 ,3001 ,3260 ,3439 ,3538 ,3538 ,3439 ,3200
	 ,2882 ,2484 ,2047 ,1590 ,1192 ,874 ,636 ,516 ,477 ,536
	 ,616 ,735 ,854 ,954 ,1013 ,1053 ,1053 ,1053 ,1053 ,1053
	 ,1053 ,1073 ,1093 ,1093 ,1093 ,1093 ,1073 ,1053 ,1033 ,1013
	 ,993 ,993 ,993 ,993 ,1013 ,1013 ,1033 ,1033 ,1033 ,1053
	 ,1053 ,1033 ,1033 ,1033 ,1033 ,1033 ,1033 ,1033 ,1053 ,1053
	 ,1053 ,1053 ,1053 ,1053 ,1053 ,1053 ,1053 ,1073 ,1073 ,1093
	 ,1113 ,1133 ,1152 ,1172 ,1192 ,1192 ,1212 ,1192 ,1192 ,1172
	 ,1152 ,1133 ,1133 ,1133 ,1133 ,1152 ,1152 ,1172 ,1192 ,1212
	 ,1232 ,1252 ,1272 ,1311 ,1331 ,1371 ,1411 ,1431 ,1451 ,1471
	 ,1490 ,1490 ,1490 ,1510 ,1510 ,1530 ,1550 ,1590 ,1610 ,1649
	 ,1669 ,1689 ,1689 ,1689 ,1689 ,1689 ,1669 ,1669 ,1669 ,1669
	 ,1689 ,1709 ,1709 ,1709 ,1709 ,1689 ,1689 ,1649 ,1630 ,1590
	 ,1550 ,1510 ,1471 ,1431 ,1371 ,1331 ,1292 ,1232 ,1172 ,1133
	 ,1093 ,1053 ,1013 ,974 ,954 ,934 ,894 ,874 ,854 ,834
	 ,815 ,775 ,755 ,735 ,715 ,715 ,695 ,695 ,675 ,675
	 ,655 ,616 ,596 ,556 ,536 ,516 ,496 ,496 ,496 ,496
	 ,516 ,516 ,536 ,536 ,536 ,536 ,516 ,516 ,516 ,516
	 ,516 ,516 ,516 ,516 ,496 ,496 ,477 ,477 ,477 ,457
	 ,457 ,477 ,477 ,496 ,496 ,516 ,516 ,516 ,516 ,516
	 ,516 ,496 ,496 ,496 ,496 ,516 ,516 ,536 ,556 ,556
	 ,576 ,576 ,576 ,556 ,536 ,536 ,516 ,516 ,516 ,516
	 ,536 ,576 ,596 ,616 ,636 ,655 ,655 ,636 ,616 ,596
	 ,576 ,556 ,556 ,556 ,576 ,576 ,596 ,596 ,596 ,596
	 ,596 ,576 ,576 ,576 ,576 ,576 ,596 ,616 ,616 ,616
	 ,616 ,596 ,576 ,556 ,536 ,536 ,516 ,516 ,496 ,516
	 ,516 ,516 ,516 ,536 ,536 ,556 ,556 ,556 ,556 ,556
	 ,536 ,536 ,516 ,516 ,516 ,496 ,496 ,496 ,496 ,496
	 ,477 ,477 ,477 ,457 ,457 ,457 ,477 ,496 ,516 ,536
	 ,556 ,576 ,576 ,576 ,576 ,556 ,536 ,516 ,516 ,496
	 ,496 ,516 ,516 ,536 ,556 ,556 ,576 ,576 ,576 ,556
	 ,556 ,536 ,516 ,496 ,496 ,477 ,496 ,496 ,516 ,536
	 ,556 ,576 ,596 ,596 ,576 ,556 ,516 ,496 ,477 ,457
	 ,437 ,457 ,477 ,496 ,516 ,556 ,576 ,596 ,596 ,596
	 ,596 ,576 ,576 ,556 ,556 ,556 ,556 ,556 ,556 ,576
	 ,576 ,576 ,576 ,576 ,576 ,576 ,556 ,556 ,556 ,536
	 ,536 ,536 ,536 ,556 ,576 ,596 ,616 ,636 ,675 ,695
	 ,695 ,715 ,715 ,715 ,715 ,715 ,715 ,735 ,735 ,735
	 ,755 ,775 ,795 ,795 ,815 ,834 ,834 ,834 ,834 ,834
	 ,815 ,815 ,795 ,775 ,775 ,755 ,755 ,735 ,735 ,715
	 ,695 ,695 ,675 ,655 ,655 ,636 ,636 ,636 ,636 ,616
	 ,616 ,616 ,616 ,596 ,576 ,576 ,556 ,536 ,536 ,516
	 ,516 ,516 ,516 ,516 ,516 ,516 ,536 ,536 ,536 ,536
	 ,536 ,556 ,556 ,576 ,596 ,596 ,596 ,596 ,596 ,596
	 ,576 ,556 ,556 ,536 ,536 ,516 ,516 ,496 ,477 ,477
	 ,457 ,477 ,496 ,576 ,675 ,854 ,1053 ,1331 ,1630 ,1967
	 ,2325 ,2663 ,2961 ,3200 ,3339 ,3359 ,3279 ,3081 ,2783 ,2385
	 ,1967 ,1530 ,1113 ,775 ,516 ,357 ,278 ,278 ,337 ,397
	 ,477 ,556 ,596 ,636 ,636 ,636 ,636 ,655 ,655 ,675
	 ,695 ,715 ,735 ,735 ,735 ,735 ,735 ,735 ,735 ,755
	 ,755 ,755 ,755 ,755 ,755 ,755 ,755 ,775 ,775 ,795
	 ,795 ,815 ,815 ,815 ,815 ,815 ,815 ,815 ,815 ,815
	 ,834 ,854 ,874 ,894 ,914 ,914 ,934 ,934 ,934 ,934
	 ,934 ,934 ,934 ,934 ,954 ,954 ,974 ,993 ,993 ,1013
	 ,1013 ,1013 ,1033 ,1033 ,1033 ,1033 ,1053 ,1073 ,1093 ,1113
	 ,1133 ,1152 ,1172 ,1192 ,1212 ,1232 ,1252 ,1272 ,1292 ,1311
	 ,1331 ,1351 ,1391 ,1411 ,1451 ,1471 ,1510 ,1530 ,1570 ,1590
	 ,1610 ,1630 ,1630 ,1649 ,1669 ,1669 ,1669 ,1669 ,1669 ,1669
	 ,1669 ,1669 ,1669 ,1669 ,1669 ,1649 ,1649 ,1649 ,1630 ,1610
	 ,1590 ,1550 ,1510 ,1471 ,1431 ,1391 ,1351 ,1331 ,1292 ,1252
	 ,1212 ,1172 ,1133 ,1073 ,1033 ,993 ,954 ,934 ,914 ,914
	 ,914 ,914 ,914 ,914 ,894 ,874 ,874 ,854 ,834 ,815
	 ,795 ,795 ,795 ,795 ,815 ,815 ,834 ,834 ,834 ,834
	 ,815 ,795 ,775 ,755 ,735 ,715 ,695 ,675 ,675 ,695
	 ,695 ,715 ,735 ,735 ,755 ,775 ,775 ,795 ,795 ,815
	 ,815 ,815 ,815 ,815 ,795 ,795 ,775 ,775 ,775 ,775
	 ,795 ,795 ,815 ,834 ,854 ,874 ,874 ,874 ,894 ,894
	 ,894 ,894 ,894 ,894 ,894 ,894 ,894 ,874 ,854 ,854
	 ,834 ,834 ,815 ,815 ,834 ,834 ,834 ,834 ,834 ,834
	 ,834 ,815 ,815 ,795 ,795 ,795 ,795 ,795 ,815 ,834
	 ,854 ,854 ,874 ,874 ,874 ,874 ,874 ,874 ,854 ,854
	 ,834 ,834 ,815 ,815 ,815 ,795 ,795 ,775 ,775 ,775
	 ,775 ,775 ,775 ,775 ,795 ,795 ,815 ,815 ,815 ,815
	 ,815 ,795 ,775 ,775 ,755 ,755 ,755 ,775 ,775 ,795
	 ,795 ,795 ,775 ,755 ,715 ,695 ,675 ,675 ,675 ,675
	 ,695 ,715 ,735 ,755 ,755 ,755 ,755 ,755 ,755 ,735
	 ,735 ,735 ,735 ,735 ,735 ,735 ,735 ,735 ,735 ,735
	 ,715 ,715 ,715 ,715 ,715 ,715 ,715 ,715 ,715 ,735
	 ,735 ,755 ,755 ,755 ,755 ,735 ,735 ,715 ,715 ,695
	 ,695 ,695 ,695 ,695 ,675 ,675 ,675 ,655 ,655 ,655
	 ,636 ,655 ,655 ,675 ,695 ,695 ,715 ,715 ,695 ,695
	 ,675 ,636 ,616 ,596 ,576 ,576 ,596 ,616 ,636 ,655
	 ,675 ,695 ,695 ,675 ,675 ,655 ,655 ,655 ,655 ,655
	 ,675 ,695 ,715 ,715 ,715 ,715 ,715 ,735 ,735 ,735
	 ,755 ,775 ,795 ,815 ,834 ,854 ,854 ,854 ,854 ,854
	 ,854 ,874 ,914 ,934 ,993 ,1033 ,1073 ,1113 ,1152 ,1192
	 ,1212 ,1232 ,1252 ,1272 ,1292 ,1292 ,1311 ,1331 ,1331 ,1331
	 ,1331 ,1311 ,1292 ,1272 ,1252 ,1232 ,1232 ,1232 ,1232 ,1252
	 ,1272 ,1272 ,1292 ,1292 ,1292 ,1292 ,1292 ,1292 ,1272 ,1272
	 ,1272 ,1272 ,1252 ,1252 ,1252 ,1232 ,1232 ,1212 ,1212 ,1212
	 ,1212 ,1212 ,1212 ,1212 ,1212 ,1212 ,1212 ,1192 ,1192 ,1172
	 ,1152 ,1152 ,1133 ,1113 ,1093 ,1073 ,1053 ,1053 ,1053 ,1093
	 ,1172 ,1272 ,1451 ,1649 ,1928 ,2226 ,2584 ,2942 ,3299 ,3617
	 ,3876 ,4035 ,4095 ,4015 ,3816 ,3498 ,3101 ,2643 ,2166 ,1709
	 ,1331 ,1053 ,874 ,795 ,815 ,874 ,974 ,1073 ,1172 ,1232
	 ,1272 ,1272 ,1272 ,1272 ,1252 ,1252 ,1272 ,1272 ,1272 ,1292
	 ,1272 ,1272 ,1252 ,1232 ,1232 ,1212 ,1192 ,1192 ,1192 ,1192
	 ,1172 ,1172 ,1172 ,1172 ,1172 ,1172 ,1192 ,1192 ,1212 ,1212
	 ,1232 ,1232 ,1232 ,1232 ,1232 ,1232 ,1232 ,1232 ,1232 ,1252
	 ,1272 ,1292 ,1311 ,1331 ,1351 ,1351 ,1351 ,1351 ,1351 ,1351
	 ,1351 ,1351 ,1351 ,1371 ,1371 ,1391 ,1411 ,1411 ,1411 ,1411
	 ,1411 ,1411 ,1411 ,1411 ,1411 ,1411 ,1431 ,1451 ,1490 ,1510
	 ,1530 ,1570 ,1590 ,1610 ,1630 ,1669 ,1689 ,1729 ,1749 ,1789
	 ,1808 ,1848 ,1868 ,1888 ,1908 ,1928 ,1948 ,1948 ,1967 ,1967
	 ,1987 ,2007 ,2007 ,2027 ,2027 ,2047 ,2047 ,2067 ,2067 ,2067
	 ,2067 ,2047 ,2027 ,2007 ,1967 ,1908 ,1868 ,1808 ,1769 ,1709
	 ,1669 ,1630 ,1590 ,1530 ,1490 ,1431 ,1371 ,1311 ,1272 ,1212
	 ,1192 ,1152 ,1133 ,1113 ,1093 ,1073 ,1033 ,993 ,954 ,894
	 ,854 ,815 ,795 ,775 ,755 ,755 ,755 ,775 ,755 ,755
	 ,755 ,735 ,715 ,695 ,695 ,695 ,695 ,695 ,695 ,695
	 ,695 ,675 ,655 ,655 ,636 ,616 ,616 ,616 ,616 ,616
	 ,636 ,636 ,655 ,655 ,655 ,655 ,636 ,636 ,636 ,636
	 ,636 ,636 ,636 ,636 ,616 ,596 ,596 ,576 ,556 ,556
	 ,536 ,556 ,556 ,576 ,576 ,596 ,596 ,596 ,596 ,596
	 ,616 ,616 ,616 ,636 ,636 ,636 ,655 ,655 ,636 ,636
	 ,616 ,596 ,576 ,576 ,556 ,556 ,556 ,556 ,576 ,576
	 ,596 ,596 ,596 ,596 ,576 ,556 ,536 ,516 ,496 ,496
	 ,477 ,477 ,477 ,496 ,496 ,516 ,536 ,536 ,556 ,556
	 ,556 ,536 ,536 ,536 ,536 ,536 ,536 ,536 ,536 ,536
	 ,516 ,516 ,496 ,477 ,457 ,437 ,417 ,417 ,417 ,397
	 ,397 ,397 ,417 ,417 ,417 ,437 ,437 ,457 ,457 ,457
	 ,457 ,437 ,437 ,417 ,397 ,357 ,357 ,337 ,337 ,337
	 ,357 ,377 ,377 ,397 ,397 ,417 ,417 ,417 ,417 ,417
	 ,417 ,417 ,417 ,417 ,417 ,417 ,417 ,417 ,417 ,417
	 ,417 ,437 ,437 ,457 ,457 ,457 ,457 ,437 ,437 ,417
	 ,417 ,417 ,417 ,417 ,437 ,457 ,477 ,496 ,496 ,516
	 ,516 ,516 ,516 ,516 ,496 ,496 ,496 ,477 ,477 ,477
	 ,477 ,477 ,496 ,516 ,536 ,556 ,576 ,576 ,576 ,576
	 ,576 ,556 ,556 ,556 ,556 ,556 ,576 ,596 ,596 ,596
	 ,596 ,596 ,596 ,616 ,616 ,636 ,675 ,695 ,735 ,775
	 ,795 ,815 ,834 ,834 ,834 ,815 ,795 ,775 ,735 ,695
	 ,675 ,636 ,616 ,576 ,556 ,536 ,536 ,516 ,516 ,496
	 ,477 ,477 ,457 ,437 ,437 ,437 ,437 ,457 ,477 ,477
	 ,496 ,516 ,516 ,516 ,516 ,496 ,496 ,477 ,457 ,457
	 ,437 ,417 ,417 ,397 ,397 ,417 ,417 ,437 ,457 ,457
	 ,477 ,477 ,477 ,457 ,437 ,417 ,417 ,397 ,397 ,397
	 ,397 ,397 ,397 ,417 ,437 ,496 ,616 ,775 ,993 ,1272
	 ,1610 ,1948 ,2305 ,2623 ,2882 ,3041 ,3120 ,3081 ,2922 ,2683
	 ,2345 ,1967 ,1570 ,1172 ,815 ,536 ,318 ,178 ,119 ,139
	 ,198 ,298 ,417 ,516 ,596 ,636 ,675 ,675 ,675 ,675
	 ,675 ,695 ,695 ,695 ,695 ,675 ,655 ,636 ,616 ,596
	 ,596 ,596 ,616 ,636 ,675 ,695 ,715 ,735 ,735 ,735
	 ,735 ,715 ,715 ,715 ,715 ,715 ,735 ,735 ,755 ,755
	 ,755 ,755 ,755 ,755 ,755 ,755 ,755 ,755 ,775 ,775
	 ,795 ,815 ,854 ,874 ,894 ,914 ,934 ,934 ,954 ,954
	 ,974 ,974 ,993 ,1013 ,1013 ,1033 ,1053 ,1053 ,1073 ,1073
	 ,1053 ,1053 ,1053 ,1053 ,1073 ,1093 ,1113 ,1152 ,1192 ,1232
	 ,1272 ,1311 ,1331 ,1371 ,1391 ,1411 ,1431 ,1451 ,1471 ,1490
	 ,1510 ,1530 ,1550 ,1570 ,1570 ,1570 ,1570 ,1570 ,1570 ,1570
	 ,1570 ,1590 ,1590 ,1610 ,1630 ,1630 ,1649 ,1630 ,1630 ,1610
	 ,1590 ,1550 ,1530 ,1490 ,1451 ,1411 ,1371 ,1331 ,1292 ,1252
	 ,1212 ,1172 ,1152 ,1133 ,1113 ,1093 ,1073 ,1053 ,1033 ,1013
	 ,974 ,934 ,894 ,854 ,834 ,815 ,795 ,775 ,775 ,775
	 ,775 ,795 ,795 ,795 ,775 ,775 ,775 ,755 ,735 ,735
	 ,735 ,715 ,715 ,715 ,715 ,715 ,715 ,735 ,735 ,735
	 ,755 ,755 ,755 ,755 ,775 ,775 ,775 ,775 ,775 ,775
	 ,775 ,775 ,795 ,795 ,795 ,795 ,775 ,775 ,775 ,755
	 ,755 ,755 ,755 ,755 ,775 ,795 ,795 ,815 ,834 ,834
	 ,854 ,854 ,854 ,834 ,834 ,815 ,795 ,795 ,775 ,775
	 ,775 ,775 ,795 ,795 ,834 ,854 ,874 ,874 ,874 ,874
	 ,874 ,854 ,834 ,815 ,815 ,795 ,795 ,815 ,815 ,815
	 ,834 ,834 ,834 ,834 ,834 ,834 ,834 ,834 ,815 ,815
	 ,815 ,795 ,795 ,775 ,775 ,755 ,755 ,755 ,755 ,755
	 ,755 ,755 ,735 ,735 ,735 ,735 ,735 ,735 ,755 ,755
	 ,775 ,775 ,775 ,775 ,775 ,755 ,755 ,755 ,755 ,755
	 ,775 ,795 ,815 ,815 ,834 ,834 ,834 ,815 ,815 ,795
	 ,775 ,775 ,755 ,775 ,775 ,795 ,815 ,815 ,815 ,815
	 ,795 ,775 ,755 ,715 ,695 ,675 ,655 ,655 ,655 ,675
	 ,695 ,715 ,735 ,755 ,755 ,775 ,775 ,795 ,795 ,795
	 ,795 ,795 ,795 ,775 ,775 ,755 ,755 ,735 ,735 ,735
	 ,735 ,735 ,735 ,735 ,735 ,735 ,735 ,735 ,735 ,735
	 ,715 ,715 ,735 ,755 ,775 ,795 ,834 ,874 ,894 ,914
	 ,914 ,894 ,894 ,874 ,854 ,834 ,815 ,834 ,854 ,874
	 ,914 ,954 ,974 ,1013 ,1013 ,1033 ,1033 ,1013 ,1013 ,993
	 ,993 ,993 ,974 ,974 ,954 ,934 ,894 ,854 ,815 ,775
	 ,735 ,715 ,695 ,695 ,695 ,695 ,715 ,715 ,715 ,715
	 ,715 ,715 ,695 ,695 ,695 ,695 ,695 ,695 ,695 ,695
	 ,695 ,675 ,655 ,655 ,636 ,636 ,616 ,636 ,636 ,655
	 ,655 ,675 ,675 ,675 ,675 ,675 ,675 ,675 ,675 ,655
	 ,655 ,616 ,596 ,556 ,536 ,516 ,516 ,536 ,596 ,715
	 ,854 ,1053 ,1292 ,1530 ,1808 ,2087 ,2345 ,2584 ,2763 ,2882
	 ,2902 ,2862 ,2703 ,2464 ,2146 ,1789 ,1411 ,1053 ,735 ,496
	 ,337 ,278 ,298 ,357 ,457 ,576 ,655 ,715 ,755 ,735
	 ,715 ,695 ,675 ,675 ,695 ,715 ,755 ,775 ,795 ,775
	 ,755 ,715 ,675 ,655 ,616 ,616 ,616 ,636 ,675 ,695
	 ,735 ,755 ,755 ,775 ,755 ,755 ,755 ,755 ,755 ,755
	 ,775 ,795 ,795 ,815 ,815 ,815 ,815 ,834 ,874 ,914
	 ,954 ,1013 ,1073 ,1133 ,1212 ,1252 ,1292 ,1331 ,1371 ,1391
	 ,1431 ,1451 ,1471 ,1490 ,1510 ,1510 ,1530 ,1530 ,1550 ,1570
	 ,1610 ,1630 ,1669 ,1709 ,1749 ,1769 ,1789 ,1808 ,1808 ,1789
	 ,1789 ,1789 ,1808 ,1828 ,1868 ,1908 ,1967 ,2007 ,2047 ,2087
	 ,2127 ,2146 ,2166 ,2166 ,2186 ,2186 ,2206 ,2206 ,2226 ,2226
	 ,2226 ,2226 ,2226 ,2206 ,2206 ,2206 ,2206 ,2206 ,2226 ,2226
	 ,2226 ,2226 ,2206 ,2186 ,2166 ,2127 ,2087 ,2027 ,1987 ,1948
	 ,1908 ,1868 ,1848 ,1808 ,1769 ,1729 ,1689 ,1649 ,1610 ,1570
	 ,1550 ,1530 ,1510 ,1490 ,1471 ,1451 ,1451 ,1431 ,1411 ,1391
	 ,1391 ,1371 ,1371 ,1371 ,1351 ,1351 ,1351 ,1331 ,1311 ,1292
	 ,1252 ,1232 ,1212 ,1192 ,1192 ,1192 ,1212 ,1232 ,1252 ,1272
	 ,1272 ,1272 ,1252 ,1232 ,1212 ,1192 ,1172 ,1172 ,1172 ,1172
	 ,1192 ,1192 ,1192 ,1192 ,1192 ,1192 ,1192 ,1172 ,1172 ,1172
	 ,1172 ,1172 ,1172 ,1172 ,1172 ,1152 ,1152 ,1152 ,1152 ,1133
	 ,1133 ,1133 ,1133 ,1133 ,1133 ,1113 ,1113 ,1113 ,1093 ,1093
	 ,1093 ,1093 ,1093 ,1093 ,1093 ,1093 ,1073 ,1073 ,1053 ,1053
	 ,1033 ,1013 ,1013 ,993 ,993 ,1013 ,1013 ,1013 ,1033 ,1033
	 ,1033 ,1033 ,1013 ,993 ,974 ,954 ,934 ,914 ,914 ,894
	 ,894 ,894 ,914 ,914 ,914 ,914 ,914 ,914 ,894 ,894
	 ,894 ,874 ,874 ,854 ,854 ,854 ,854 ,854 ,854 ,874
	 ,874 ,874 ,874 ,874 ,854 ,854 ,854 ,834 ,815 ,815
	 ,795 ,775 ,755 ,735 ,735 ,735 ,755 ,775 ,795 ,815
	 ,834 ,834 ,834 ,815 ,775 ,735 ,695 ,675 ,655 ,636
	 ,655 ,675 ,695 ,735 ,755 ,755 ,755 ,755 ,735 ,715
	 ,695 ,675 ,655 ,636 ,616 ,616 ,596 ,596 ,596 ,596
	 ,596 ,596 ,596 ,616 ,636 ,655 ,655 ,675 ,675 ,655
	 ,655 ,655 ,655 ,655 ,655 ,675 ,695 ,715 ,735 ,755
	 ,775 ,775 ,755 ,735 ,715 ,695 ,675 ,655 ,655 ,675
	 ,695 ,715 ,755 ,815 ,854 ,874 ,914 ,914 ,914 ,894
	 ,874 ,854 ,815 ,795 ,775 ,755 ,755 ,755 ,755 ,735
	 ,735 ,715 ,695 ,675 ,636 ,596 ,576 ,536 ,516 ,516
	 ,496 ,496 ,496 ,496 ,496 ,496 ,516 ,516 ,516 ,536
	 ,536 ,536 ,516 ,516 ,496 ,477 ,437 ,417 ,417 ,417
	 ,417 ,417 ,437 ,457 ,477 ,496 ,496 ,496 ,496 ,477
	 ,457 ,437 ,417 ,417 ,397 ,377 ,377 ,357 ,357 ,357
	 ,377 ,417 ,477 ,596 ,755 ,954 ,1212 ,1510 ,1828 ,2146
	 ,2445 ,2683 ,2822 ,2882 ,2822 ,2643 ,2365 ,2027 ,1630 ,1252
	 ,874 ,576 ,337 ,198 ,119 ,119 ,159 ,238 ,318 ,377
	 ,437 ,477 ,496 ,516 ,536 ,536 ,536 ,556 ,556 ,556
	 ,556 ,556 ,536 ,536 ,516 ,516 ,516 ,516 ,536 ,576
	 ,596 ,636 ,655 ,675 ,695 ,695 ,675 ,675 ,655 ,636
	 ,616 ,616 ,636 ,655 ,675 ,695 ,735 ,755 ,775 ,775
	 ,775 ,755 ,735 ,715 ,695 ,675 ,675 ,675 ,675 ,695
	 ,715 ,735 ,735 ,755 ,755 ,755 ,755 ,775 ,795 ,795
	 ,834 ,854 ,874 ,894 ,914 ,914 ,934 ,934 ,954 ,974
	 ,993 ,1013 ,1033 ,1053 ,1073 ,1093 ,1093 ,1113 ,1113 ,1152
	 ,1172 ,1212 ,1272 ,1331 ,1371 ,1411 ,1451 ,1471 ,1471 ,1471
	 ,1451 ,1451 ,1451 ,1451 ,1471 ,1490 ,1510 ,1530 ,1530 ,1510
	 ,1490 ,1471 ,1451 ,1431 ,1431 ,1411 ,1411 ,1411 ,1411 ,1391
	 ,1351 ,1311 ,1252 ,1192 ,1133 ,1073 ,1033 ,993 ,954 ,934
	 ,914 ,894 ,874 ,854 ,815 ,795 ,775 ,755 ,715 ,695
	 ,675 ,636 ,616 ,596 ,576 ,576 ,576 ,576 ,576 ,596
	 ,596 ,596 ,576 ,576 ,556 ,536 ,516 ,516 ,496 ,516
	 ,516 ,536 ,576 ,596 ,616 ,616 ,616 ,596 ,596 ,576
	 ,556 ,536 ,536 ,556 ,576 ,596 ,616 ,655 ,675 ,675
	 ,675 ,655 ,616 ,596 ,556 ,536 ,516 ,516 ,516 ,536
	 ,576 ,596 ,636 ,655 ,675 ,675 ,675 ,655 ,655 ,655
	 ,636 ,636 ,636 ,616 ,616 ,616 ,616 ,616 ,616 ,616
	 ,616 ,636 ,655 ,675 ,675 ,695 ,715 ,715 ,715 ,715
	 ,715 ,715 ,715 ,715 ,715 ,735 ,735 ,735 ,715 ,715
	 ,715 ,695 ,695 ,675 ,675 ,655 ,636 ,636 ,616 ,596
	 ,596 ,576 ,576 ,576 ,576 ,596 ,596 ,616 ,616 ,616
	 ,616 ,636 ,636 ,636 ,655 ,655 ,675 ,675 ,675 ,675
	 ,655 ,655 ,636 ,616 ,616 ,616 ,616 ,616 ,616 ,616
	 ,636 ,636 ,655 ,655 ,655 ,655 ,655 ,655 ,655 ,636
	 ,636 ,636 ,636 ,636 ,655 ,655 ,655 ,655 ,655 ,655
	 ,655 ,636 ,636 ,636 ,616 ,636 ,636 ,636 ,636 ,636
	 ,636 ,636 ,636 ,616 ,616 ,616 ,616 ,616 ,636 ,636
	 ,655 ,675 ,675 ,695 ,715 ,735 ,735 ,755 ,755 ,755
	 ,755 ,775 ,775 ,775 ,775 ,795 ,815 ,834 ,854 ,894
	 ,914 ,954 ,974 ,993 ,993 ,1013 ,993 ,974 ,954 ,914
	 ,874 ,834 ,795 ,775 ,755 ,755 ,755 ,755 ,755 ,755
	 ,735 ,715 ,695 ,675 ,636 ,616 ,616 ,616 ,616 ,636
	 ,636 ,655 ,655 ,636 ,636 ,616 ,616 ,596 ,596 ,616
	 ,616 ,636 ,636 ,636 ,636 ,636 ,636 ,616 ,616 ,616
	 ,616 ,616 ,616 ,616 ,596 ,576 ,556 ,536 ,516 ,516
	 ,516 ,516 ,516 ,516 ,536 ,556 ,596 ,695 ,834 ,1033
	 ,1292 ,1630 ,1987 ,2365 ,2743 ,3041 ,3279 ,3379 ,3359 ,3220
	 ,2961 ,2584 ,2166 ,1709 ,1272 ,894 ,576 ,357 ,238 ,198
	 ,238 ,318 ,417 ,516 ,616 ,695 ,735 ,755 ,735 ,735
	 ,715 ,695 ,695 ,695 ,695 ,715 ,735 ,735 ,735 ,735
	 ,715 ,695 ,695 ,695 ,695 ,695 ,715 ,735 ,755 ,775
	 ,775 ,775 ,775 ,775 ,775 ,795 ,795 ,815 ,834 ,854
	 ,874 ,894 ,894 ,914 ,914 ,914 ,894 ,894 ,894 ,894
	 ,894 ,914 ,914 ,914 ,934 ,934 ,934 ,934 ,954 ,954
	 ,954 ,954 ,954 ,974 ,993 ,1013 ,1053 ,1073 ,1113 ,1133
	 ,1152 ,1172 ,1192 ,1192 ,1212 ,1232 ,1232 ,1252 ,1272 ,1292
	 ,1311 ,1331 ,1351 ,1371 ,1391 ,1411 ,1431 ,1471 ,1490 ,1530
	 ,1550 ,1570 ,1610 ,1630 ,1649 ,1669 ,1689 ,1709 ,1729 ,1749
	 ,1749 ,1769 ,1769 ,1769 ,1749 ,1729 ,1709 ,1669 ,1649 ,1649
	 ,1630 ,1630 ,1630 ,1630 ,1610 ,1570 ,1550 ,1490 ,1431 ,1371
	 ,1311 ,1252 ,1192 ,1152 ,1113 ,1093 ,1073 ,1053 ,1033 ,1013
	 ,1013 ,993 ,974 ,954 ,954 ,934 ,914 ,874 ,854 ,815
	 ,775 ,755 ,715 ,695 ,695 ,695 ,695 ,735 ,755 ,775
	 ,795 ,795 ,795 ,775 ,755 ,735 ,715 ,695 ,695 ,715
	 ,715 ,735 ,755 ,775 ,775 ,775 ,755 ,755 ,735 ,735
	 ,715 ,715 ,715 ,715 ,735 ,735 ,735 ,735 ,735 ,755
	 ,755 ,775 ,795 ,815 ,834 ,834 ,834 ,834 ,834 ,815
	 ,795 ,795 ,795 ,795 ,795 ,815 ,815 ,815 ,815 ,815
	 ,815 ,815 ,815 ,795 ,815 ,815 ,815 ,815 ,815 ,815
	 ,815 ,815 ,815 ,834 ,834 ,854 ,854 ,854 ,834 ,834
	 ,815 ,815 ,815 ,815 ,834 ,874 ,914 ,954 ,1013 ,1053
	 ,1113 ,1152 ,1192 ,1212 ,1252 ,1272 ,1272 ,1292 ,1292 ,1292
	 ,1272 ,1272 ,1252 ,1252 ,1232 ,1232 ,1252 ,1252 ,1252 ,1252
	 ,1272 ,1252 ,1252 ,1252 ,1232 ,1232 ,1232 ,1232 ,1252 ,1252
	 ,1272 ,1292 ,1311 ,1331 ,1351 ,1351 ,1371 ,1351 ,1351 ,1331
	 ,1331 ,1311 ,1311 ,1311 ,1311 ,1311 ,1311 ,1311 ,1311 ,1311
	 ,1311 ,1311 ,1311 ,1292 ,1292 ,1292 ,1292 ,1292 ,1292 ,1272
	 ,1272 ,1252 ,1232 ,1212 ,1212 ,1212 ,1212 ,1212 ,1232 ,1252
	 ,1272 ,1292 ,1292 ,1292 ,1292 ,1292 ,1292 ,1272 ,1292 ,1292
	 ,1292 ,1311 ,1331 ,1331 ,1351 ,1351 ,1371 ,1371 ,1391 ,1411
	 ,1431 ,1451 ,1471 ,1471 ,1490 ,1490 ,1471 ,1471 ,1451 ,1431
	 ,1431 ,1411 ,1391 ,1371 ,1351 ,1311 ,1292 ,1252 ,1212 ,1172
	 ,1133 ,1113 ,1093 ,1093 ,1073 ,1073 ,1053 ,1033 ,1033 ,1013
	 ,993 ,974 ,954 ,954 ,954 ,934 ,934 ,914 ,914 ,914
	 ,894 ,894 ,874 ,874 ,874 ,874 ,874 ,874 ,874 ,874
	 ,894 ,894 ,894 ,914 ,914 ,914 ,894 ,874 ,834 ,795
	 ,755 ,715 ,675 ,655 ,655 ,675 ,735 ,834 ,974 ,1172
	 ,1431 ,1729 ,2087 ,2464 ,2842 ,3180 ,3439 ,3617 ,3677 ,3598
	 ,3399 ,3061 ,2643 ,2166 ,1689 ,1252 ,854 ,576 ,377 ,298
	 ,278 ,337 ,437 ,536 ,636 ,715 ,755 ,775 ,775 ,775
	 ,755 ,755 ,755 ,775 ,775 ,795 ,795 ,815 ,815 ,795
	 ,795 ,795 ,795 ,815 ,815 ,834 ,834 ,854 ,854 ,854
	 ,854 ,834 ,834 ,815 ,815 ,815 ,815 ,815 ,815 ,815
	 ,815 ,815 ,815 ,834 ,834 ,834 ,854 ,854 ,874 ,874
	 ,874 ,874 ,874 ,894 ,894 ,894 ,894 ,894 ,894 ,914
	 ,934 ,934 ,954 ,974 ,993 ,1013 ,1013 ,1013 ,1013 ,1013
	 ,1013 ,993 ,993 ,1013 ,1033 ,1053 ,1093 ,1133 ,1172 ,1212
	 ,1232 ,1252 ,1272 ,1272 ,1272 ,1292 ,1292 ,1311 ,1331 ,1371
	 ,1411 ,1451 ,1490 ,1510 ,1550 ,1550 ,1570 ,1570 ,1590 ,1590
	 ,1590 ,1590 ,1590 ,1570 ,1570 ,1550 ,1510 ,1490 ,1471 ,1431
	 ,1431 ,1411 ,1391 ,1371 ,1351 ,1311 ,1292 ,1232 ,1192 ,1152
	 ,1113 ,1073 ,1053 ,1033 ,1013 ,1013 ,993 ,974 ,934 ,894
	 ,854 ,795 ,755 ,695 ,675 ,636 ,616 ,616 ,616 ,596
	 ,596 ,596 ,596 ,576 ,576 ,556 ,536 ,536 ,516 ,496
	 ,496 ,496 ,516 ,536 ,556 ,556 ,576 ,596 ,616 ,636
	 ,636 ,636 ,655 ,655 ,655 ,655 ,636 ,636 ,616 ,596
	 ,596 ,576 ,556 ,556 ,556 ,556 ,576 ,596 ,596 ,616
	 ,616 ,636 ,636 ,636 ,616 ,616 ,616 ,596 ,596 ,576
	 ,576 ,576 ,576 ,576 ,596 ,596 ,616 ,616 ,636 ,636
	 ,636 ,636 ,636 ,616 ,616 ,596 ,576 ,556 ,556 ,536
	 ,536 ,556 ,556 ,556 ,576 ,576 ,556 ,556 ,536 ,536
	 ,516 ,496 ,496 ,496 ,496 ,516 ,536 ,536 ,556 ,556
	 ,576 ,576 ,576 ,576 ,556 ,556 ,556 ,556 ,556 ,576
	 ,576 ,576 ,576 ,576 ,556 ,536 ,516 ,496 ,477 ,477
	 ,477 ,496 ,496 ,516 ,536 ,536 ,536 ,516 ,516 ,496
	 ,477 ,477 ,457 ,457 ,457 ,477 ,477 ,477 ,477 ,477
	 ,477 ,496 ,496 ,496 ,516 ,536 ,556 ,576 ,596 ,616
	 ,636 ,655 ,675 ,675 ,695 ,695 ,695 ,695 ,695 ,695
	 ,695 ,715 ,735 ,755 ,755 ,775 ,775 ,775 ,755 ,735
	 ,695 ,675 ,655 ,616 ,596 ,576 ,556 ,536 ,516 ,496
	 ,496 ,496 ,496 ,516 ,536 ,556 ,576 ,576 ,596 ,596
	 ,576 ,576 ,556 ,536 ,516 ,496 ,496 ,477 ,477 ,477
	 ,457 ,457 ,437 ,437 ,417 ,417 ,417 ,437 ,437 ,457
	 ,457 ,457 ,457 ,457 ,457 ,457 ,457 ,437 ,437 ,417
	 ,397 ,377 ,337 ,318 ,298 ,318 ,357 ,477 ,675 ,934
	 ,1252 ,1630 ,2007 ,2385 ,2703 ,2942 ,3081 ,3120 ,3021 ,2822
	 ,2524 ,2166 ,1749 ,1351 ,954 ,616 ,337 ,139 ,39 ,0
	 ,19 ,99 ,198 ,298 ,377 ,457 ,496 ,516 ,536 ,536
	 ,536 ,536 ,536 ,556 ,556 ,576 ,596 ,616 ,636 ,636
	 ,636 ,636 ,636 ,636 ,636 ,636 ,636 ,636 ,636 ,655
	 ,655 ,655 ,636 ,636 ,636 ,636 ,655 ,655 ,675 ,695
	 ,715 ,735 ,755 ,755 ,755 ,755 ,755 ,735 ,735 ,735
	 ,755 ,755 ,775 ,775 ,795 ,795 ,795 ,795 ,795 ,815
	 ,834 ,854 ,874 ,914 ,954 ,974 ,993 ,1013 ,1033 ,1033
	 ,1033 ,1033 ,1033 ,1053 ,1073 ,1093 ,1113 ,1133 ,1152 ,1152
	 ,1172 ,1172 ,1192 ,1212 ,1252 ,1292 ,1331 ,1371 ,1411 ,1451
	 ,1471 ,1490 ,1510 ,1510 ,1530 ,1550 ,1550 ,1570 ,1570 ,1590
	 ,1590 ,1590 ,1570 ,1570 ,1570 ,1570 ,1570 ,1570 ,1550 ,1530
	 ,1510 ,1471 ,1431 ,1371 ,1311 ,1252 ,1212 ,1172 ,1152 ,1133
	 ,1113 ,1073 ,1053 ,1013 ,974 ,914 ,874 ,834 ,795 ,755
	 ,735 ,715 ,695 ,655 ,636 ,616 ,596 ,596 ,596 ,596
	 ,596 ,596 ,616 ,596 ,596 ,556 ,536 ,496 ,477 ,457
	 ,457 ,457 ,477 ,496 ,536 ,556 ,596 ,616 ,636 ,655
	 ,655 ,655 ,636 ,636 ,616 ,616 ,616 ,596 ,596 ,616
	 ,616 ,616 ,636 ,636 ,655 ,655 ,655 ,636 ,636 ,616
	 ,596 ,596 ,576 ,576 ,576 ,576 ,596 ,596 ,596 ,596
	 ,596 ,596 ,596 ,596 ,616 ,636 ,655 ,675 ,695 ,695
	 ,715 ,715 ,695 ,675 ,675 ,655 ,636 ,636 ,636 ,655
	 ,655 ,655 ,655 ,636 ,636 ,616 ,596 ,576 ,576 ,576
	 ,596 ,616 ,636 ,655 ,655 ,675 ,655 ,655 ,636 ,636
	 ,636 ,636 ,636 ,636 ,655 ,655 ,655 ,655 ,655 ,655
	 ,655 ,655 ,655 ,675 ,675 ,675 ,675 ,675 ,655 ,636
	 ,636 ,616 ,616 ,616 ,616 ,616 ,616 ,636 ,636 ,655
	 ,675 ,695 ,695 ,715 ,715 ,715 ,715 ,715 ,695 ,695
	 ,695 ,695 ,715 ,735 ,755 ,795 ,815 ,834 ,854 ,854
	 ,834 ,834 ,834 ,834 ,834 ,834 ,834 ,815 ,795 ,755
	 ,715 ,675 ,636 ,596 ,576 ,556 ,556 ,556 ,576 ,576
	 ,596 ,596 ,616 ,616 ,616 ,616 ,616 ,616 ,616 ,616
	 ,596 ,596 ,576 ,576 ,576 ,576 ,616 ,636 ,695 ,735
	 ,775 ,815 ,854 ,894 ,914 ,934 ,934 ,954 ,954 ,974
	 ,974 ,993 ,993 ,993 ,1013 ,1013 ,1033 ,1033 ,1033 ,1033
	 ,1033 ,1033 ,1033 ,1073 ,1133 ,1232 ,1391 ,1590 ,1828 ,2127
	 ,2425 ,2723 ,2981 ,3200 ,3339 ,3399 ,3359 ,3240 ,3001 ,2703
	 ,2345 ,1967 ,1610 ,1272 ,1013 ,815 ,715 ,675 ,715 ,815
	 ,934 ,1053 ,1152 ,1232 ,1272 ,1292 ,1272 ,1272 ,1252 ,1232
	 ,1232 ,1232 ,1232 ,1232 ,1232 ,1232 ,1232 ,1232 ,1232 ,1232
	 ,1232 ,1252 ,1272 ,1292 ,1311 ,1311 ,1311 ,1311 ,1292 ,1292
	 ,1272 ,1252 ,1252 ,1272 ,1272 ,1292 ,1311 ,1331 ,1331 ,1331
	 ,1331 ,1331 ,1331 ,1331 ,1331 ,1351 ,1351 ,1371 ,1371 ,1371
	 ,1371 ,1371 ,1371 ,1371 ,1351 ,1371 ,1371 ,1391 ,1411 ,1431
	 ,1451 ,1471 ,1471 ,1471 ,1471 ,1471 ,1471 ,1471 ,1471 ,1490
	 ,1490 ,1510 ,1510 ,1530 ,1530 ,1530 ,1530 ,1550 ,1570 ,1590
	 ,1610 ,1630 ,1669 ,1689 ,1709 ,1729 ,1749 ,1749 ,1769 ,1789
	 ,1808 ,1828 ,1868 ,1888 ,1888 ,1908 ,1908 ,1888 ,1868 ,1848
	 ,1828 ,1808 ,1789 ,1769 ,1749 ,1709 ,1689 ,1649 ,1630 ,1590
	 ,1570 ,1570 ,1550 ,1550 ,1530 ,1510 ,1490 ,1451 ,1411 ,1351
	 ,1311 ,1252 ,1212 ,1172 ,1152 ,1133 ,1113 ,1113 ,1113 ,1093
	 ,1093 ,1073 ,1073 ,1053 ,1053 ,1033 ,1013 ,993 ,974 ,934
	 ,914 ,874 ,854 ,834 ,815 ,815 ,815 ,815 ,834 ,834
	 ,854 ,834 ,834 ,834 ,815 ,795 ,795 ,795 ,795 ,815
	 ,834 ,854 ,874 ,874 ,874 ,874 ,854 ,815 ,795 ,775
	 ,755 ,755 ,775 ,775 ,815 ,834 ,854 ,854 ,874 ,874
	 ,854 ,854 ,854 ,854 ,854 ,854 ,874 ,874 ,874 ,874
	 ,854 ,834 ,815 ,815 ,795 ,795 ,795 ,795 ,815 ,815
	 ,834 ,834 ,834 ,815 ,815 ,795 ,795 ,795 ,795 ,815
	 ,815 ,815 ,815 ,815 ,795 ,775 ,755 ,735 ,735 ,735
	 ,735 ,755 ,755 ,775 ,795 ,795 ,775 ,775 ,755 ,735
	 ,735 ,735 ,755 ,775 ,795 ,815 ,834 ,834 ,815 ,815
	 ,775 ,755 ,735 ,715 ,695 ,695 ,715 ,735 ,755 ,775
	 ,795 ,795 ,815 ,795 ,795 ,795 ,775 ,775 ,795 ,795
	 ,815 ,854 ,874 ,914 ,934 ,954 ,974 ,974 ,974 ,954
	 ,934 ,914 ,894 ,874 ,854 ,854 ,854 ,834 ,834 ,834
	 ,834 ,834 ,815 ,795 ,795 ,775 ,755 ,755 ,735 ,715
	 ,695 ,695 ,675 ,675 ,655 ,655 ,655 ,655 ,655 ,655
	 ,636 ,616 ,596 ,596 ,576 ,576 ,576 ,596 ,596 ,616
	 ,636 ,636 ,636 ,636 ,636 ,636 ,655 ,655 ,675 ,695
	 ,695 ,715 ,695 ,675 ,655 ,616 ,576 ,536 ,496 ,477
	 ,477 ,496 ,536 ,596 ,695 ,815 ,993 ,1192 ,1451 ,1729
	 ,2027 ,2305 ,2544 ,2743 ,2842 ,2842 ,2743 ,2544 ,2266 ,1908
	 ,1530 ,1172 ,834 ,576 ,377 ,258 ,198 ,218 ,258 ,337
	 ,417 ,477 ,536 ,576 ,616 ,616 ,636 ,655 ,675 ,695
	 ,715 ,755 ,775 ,775 ,795 ,795 ,795 ,775 ,755 ,755
	 ,735 ,715 ,715 ,695 ,675 ,675 ,655 ,655 ,675 ,675
	 ,695 ,735 ,775 ,795 ,834 ,854 ,854 ,874 ,874 ,854
	 ,854 ,834 ,834 ,834 ,834 ,834 ,834 ,834 ,834 ,834
	 ,834 ,834 ,854 ,854 ,874 ,894 ,914 ,954 ,974 ,993
	 ,1013 ,1033 ,1053 ,1053 ,1053 ,1053 ,1053 ,1053 ,1053 ,1073
	 ,1073 ,1073 ,1093 ,1093 ,1133 ,1152 ,1192 ,1232 ,1272 ,1292
	 ,1331 ,1351 ,1371 ,1371 ,1391 ,1391 ,1391 ,1391 ,1391 ,1411
	 ,1431 ,1471 ,1490 ,1510 ,1530 ,1550 ,1570 ,1570 ,1570 ,1550
	 ,1550 ,1530 ,1490 ,1471 ,1451 ,1431 ,1411 ,1391 ,1391 ,1371
	 ,1371 ,1351 ,1331 ,1292 ,1252 ,1192 ,1133 ,1073 ,1013 ,954
	 ,914 ,874 ,854 ,834 ,834 ,815 ,815 ,795 ,775 ,755
	 ,735 ,735 ,715 ,715 ,715 ,715 ,715 ,735 ,735 ,755
	 ,755 ,755 ,755 ,755 ,735 ,735 ,735 ,735 ,735 ,735
	 ,735 ,735 ,715 ,695 ,695 ,675 ,655 ,655 ,655 ,675
	 ,675 ,695 ,715 ,695 ,695 ,675 ,655 ,616 ,596 ,596
	 ,616 ,636 ,655 ,695 ,715 ,735 ,735 ,715 ,695 ,675
	 ,655 ,636 ,636 ,655 ,675 ,695 ,715 ,735 ,735 ,735
	 ,735 ,715 ,715 ,695 ,695 ,715 ,715 ,715 ,715 ,735
	 ,715 ,715 ,715 ,715 ,695 ,695 ,695 ,675 ,675 ,655
	 ,636 ,616 ,596 ,596 ,576 ,576 ,596 ,616 ,636 ,655
	 ,675 ,695 ,695 ,695 ,675 ,655 ,636 ,616 ,616 ,596
	 ,596 ,596 ,616 ,616 ,636 ,636 ,636 ,636 ,636 ,636
	 ,636 ,636 ,636 ,636 ,655 ,655 ,675 ,675 ,695 ,695
	 ,695 ,715 ,715 ,715 ,735 ,755 ,755 ,775 ,775 ,775
	 ,775 ,775 ,755 ,755 ,755 ,755 ,775 ,775 ,795 ,795
	 ,815 ,815 ,815 ,815 ,815 ,815 ,815 ,795 ,795 ,795
	 ,775 ,755 ,735 ,715 ,695 ,655 ,616 ,576 ,556 ,536
	 ,516 ,496 ,496 ,516 ,516 ,536 ,536 ,556 ,536 ,536
	 ,516 ,496 ,477 ,457 ,457 ,437 ,437 ,457 ,457 ,457
	 ,477 ,477 ,477 ,477 ,496 ,496 ,496 ,496 ,496 ,496
	 ,496 ,496 ,496 ,516 ,536 ,536 ,556 ,556 ,536 ,516
	 ,477 ,417 ,377 ,337 ,318 ,337 ,417 ,536 ,715 ,954
	 ,1232 ,1550 ,1888 ,2226 ,2544 ,2802 ,3021 ,3120 ,3120 ,3001
	 ,2763 ,2405 ,1987 ,1530 ,1073 ,675 ,377 ,159 ,59 ,59
	 ,119 ,218 ,337 ,437 ,516 ,556 ,576 ,576 ,576 ,576
	 ,596 ,616 ,636 ,655 ,655 ,655 ,636 ,616 ,616 ,596
	 ,596 ,596 ,616 ,616 ,636 ,616 ,616 ,596 ,556 ,536
	 ,536 ,536 ,536 ,576 ,596 ,636 ,655 ,695 ,715 ,715
	 ,735 ,735 ,755 ,755 ,775 ,775 ,775 ,795 ,775 ,775
	 ,775 ,775 ,775 ,775 ,775 ,795 ,815 ,815 ,834 ,854
	 ,854 ,854 ,854 ,874 ,874 ,874 ,894 ,894 ,914 ,934
	 ,954 ,974 ,993 ,1013 ,1033 ,1073 ,1113 ,1133 ,1192 ,1232
	 ,1272 ,1292 ,1331 ,1331 ,1351 ,1351 ,1351 ,1351 ,1351 ,1371
	 ,1371 ,1411 ,1431 ,1471 ,1490 ,1510 ,1530 ,1550 ,1550 ,1530
	 ,1530 ,1510 ,1510 ,1510 ,1510 ,1530 ,1550 ,1570 ,1590 ,1610
	 ,1630 ,1630 ,1630 ,1630 ,1610 ,1590 ,1550 ,1530 ,1510 ,1490
	 ,1451 ,1431 ,1411 ,1391 ,1391 ,1371 ,1371 ,1351 ,1351 ,1331
	 ,1311 ,1292 ,1272 ,1252 ,1212 ,1192 ,1192 ,1172 ,1172 ,1172
	 ,1172 ,1172 ,1172 ,1172 ,1152 ,1152 ,1133 ,1133 ,1133 ,1133
	 ,1133 ,1133 ,1133 ,1113 ,1113 ,1093 ,1073 ,1073 ,1053 ,1053
	 ,1053 ,1053 ,1073 ,1073 ,1093 ,1093 ,1113 ,1113 ,1093 ,1093
	 ,1093 ,1073 ,1093 ,1093 ,1113 ,1113 ,1133 ,1133 ,1152 ,1152
	 ,1152 ,1133 ,1133 ,1133 ,1152 ,1152 ,1172 ,1172 ,1172 ,1192
	 ,1192 ,1192 ,1192 ,1192 ,1172 ,1172 ,1172 ,1172 ,1152 ,1152
	 ,1133 ,1113 ,1113 ,1093 ,1093 ,1093 ,1073 ,1073 ,1073 ,1073
	 ,1053 ,1053 ,1033 ,1033 ,1033 ,1033 ,1033 ,1033 ,1033 ,1013
	 ,993 ,974 ,954 ,914 ,894 ,894 ,894 ,894 ,894 ,914
	 ,934 ,934 ,934 ,934 ,934 ,914 ,914 ,914 ,894 ,894
	 ,874 ,874 ,874 ,854 ,854 ,834 ,834 ,815 ,815 ,815
	 ,795 ,795 ,795 ,795 ,795 ,795 ,795 ,795 ,815 ,834
	 ,834 ,854 ,874 ,874 ,894 ,894 ,874 ,874 ,854 ,834
	 ,815 ,795 ,775 ,755 ,755 ,755 ,775 ,795 ,815 ,834
	 ,854 ,874 ,894 ,914 ,934 ,954 ,954 ,974 ,974 ,974
	 ,954 ,934 ,894 ,854 ,795 ,735 ,695 ,636 ,616 ,576
	 ,576 ,556 ,576 ,576 ,596 ,596 ,596 ,596 ,596 ,596
	 ,596 ,596 ,596 ,596 ,596 ,576 ,576 ,576 ,556 ,556
	 ,536 ,536 ,536 ,536 ,536 ,536 ,556 ,556 ,556 ,556
	 ,556 ,556 ,556 ,556 ,536 ,536 ,516 ,516 ,496 ,496
	 ,477 ,457 ,437 ,417 ,397 ,397 ,417 ,477 ,576 ,755
	 ,974 ,1252 ,1590 ,1967 ,2345 ,2703 ,3021 ,3260 ,3399 ,3399
	 ,3279 ,3041 ,2683 ,2246 ,1789 ,1331 ,894 ,556 ,318 ,178
	 ,119 ,159 ,238 ,337 ,457 ,536 ,596 ,636 ,655 ,675
	 ,675 ,675 ,695 ,715 ,735 ,735 ,755 ,755 ,735 ,715
	 ,695 ,695 ,695 ,695 ,695 ,715 ,735 ,755 ,755 ,755
	 ,755 ,755 ,755 ,735 ,735 ,715 ,715 ,735 ,735 ,735
	 ,755 ,775 ,775 ,795 ,815 ,815 ,834 ,834 ,854 ,854
	 ,834 ,834 ,815 ,815 ,815 ,815 ,834 ,854 ,894 ,934
	 ,954 ,993 ,1013 ,1013 ,1013 ,1013 ,1013 ,1013 ,1013 ,1033
	 ,1053 ,1073 ,1093 ,1113 ,1133 ,1152 ,1172 ,1192 ,1232 ,1252
	 ,1292 ,1331 ,1371 ,1411 ,1431 ,1451 ,1451 ,1451 ,1451 ,1451
	 ,1451 ,1451 ,1471 ,1490 ,1530 ,1550 ,1570 ,1570 ,1590 ,1570
	 ,1570 ,1570 ,1550 ,1550 ,1550 ,1570 ,1570 ,1570 ,1590 ,1570
	 ,1550 ,1530 ,1490 ,1451 ,1391 ,1351 ,1311 ,1292 ,1252 ,1232
	 ,1232 ,1212 ,1192 ,1172 ,1152 ,1113 ,1073 ,1033 ,1013 ,974
	 ,954 ,934 ,914 ,894 ,874 ,854 ,834 ,815 ,795 ,795
	 ,795 ,795 ,795 ,815 ,815 ,815 ,815 ,795 ,795 ,775
	 ,755 ,755 ,735 ,735 ,735 ,735 ,715 ,715 ,715 ,695
	 ,695 ,675 ,675 ,675 ,675 ,675 ,675 ,655 ,655 ,655
	 ,655 ,655 ,655 ,655 ,675 ,695 ,715 ,735 ,755 ,775
	 ,775 ,795 ,795 ,795 ,795 ,795 ,795 ,775 ,775 ,755
	 ,735 ,715 ,715 ,695 ,675 ,675 ,675 ,675 ,695 ,715
	 ,715 ,735 ,755 ,775 ,775 ,775 ,775 ,775 ,755 ,735
	 ,735 ,715 ,715 ,715 ,715 ,715 ,735 ,735 ,735 ,715
	 ,715 ,695 ,675 ,655 ,655 ,636 ,636 ,636 ,655 ,675
	 ,695 ,715 ,715 ,735 ,735 ,735 ,715 ,695 ,695 ,675
	 ,655 ,636 ,636 ,636 ,636 ,655 ,655 ,675 ,675 ,675
	 ,675 ,695 ,695 ,695 ,695 ,715 ,715 ,715 ,735 ,735
	 ,735 ,735 ,735 ,715 ,715 ,715 ,715 ,715 ,715 ,715
	 ,735 ,735 ,735 ,735 ,735 ,715 ,715 ,715 ,715 ,715
	 ,715 ,715 ,735 ,735 ,755 ,755 ,775 ,775 ,775 ,775
	 ,775 ,775 ,795 ,795 ,815 ,834 ,854 ,874 ,894 ,914
	 ,934 ,934 ,934 ,934 ,934 ,934 ,914 ,914 ,894 ,874
	 ,874 ,854 ,834 ,815 ,795 ,755 ,735 ,715 ,695 ,695
	 ,695 ,695 ,695 ,695 ,695 ,695 ,675 ,675 ,675 ,655
	 ,655 ,655 ,636 ,636 ,636 ,636 ,636 ,636 ,636 ,616
	 ,636 ,636 ,636 ,655 ,655 ,655 ,655 ,636 ,616 ,596
	 ,576 ,556 ,536 ,536 ,536 ,556 ,576 ,596 ,596 ,576
	 ,556 ,516 ,477 ,437 ,457 ,496 ,576 ,735 ,934 ,1192
	 ,1490 ,1828 ,2166 ,2504 ,2802 ,3061 ,3240 ,3319 ,3279 ,3120
	 ,2862 ,2504 ,2087 ,1630 ,1192 ,795 ,496 ,298 ,198 ,178
	 ,238 ,337 ,457 ,556 ,616 ,655 ,675 ,655 ,655 ,655
	 ,655 ,675 ,715 ,735 ,775 ,775 ,775 ,755 ,735 ,715
	 ,695 ,675 ,695 ,695 ,735 ,755 ,775 ,795 ,815 ,815
	 ,815 ,815 ,815 ,815 ,815 ,815 ,815 ,815 ,815 ,834
	 ,834 ,834 ,854 ,854 ,874 ,874 ,894 ,894 ,894 ,874
	 ,874 ,874 ,894 ,894 ,934 ,954 ,993 ,1013 ,1033 ,1053
	 ,1053 ,1053 ,1033 ,1033 ,1013 ,1033 ,1053 ,1073 ,1113 ,1133
	 ,1172 ,1192 ,1192 ,1212 ,1192 ,1192 ,1192 ,1212 ,1232 ,1252
	 ,1292 ,1331 ,1351 ,1391 ,1411 ,1431 ,1451 ,1451 ,1471 ,1471
	 ,1490 ,1510 ,1530 ,1550 ,1570 ,1590 ,1630 ,1649 ,1669 ,1689
	 ,1709 ,1709 ,1689 ,1669 ,1649 ,1610 ,1590 ,1550 ,1530 ,1510
	 ,1490 ,1471 ,1451 ,1411 ,1371 ,1311 ,1252 ,1192 ,1152 ,1113
	 ,1093 ,1073 ,1073 ,1073 ,1073 ,1053 ,1033 ,1013 ,974 ,914
	 ,874 ,834 ,795 ,795 ,775 ,775 ,775 ,775 ,775 ,775
	 ,755 ,735 ,735 ,715 ,695 ,675 ,655 ,636 ,636 ,616
	 ,596 ,596 ,596 ,616 ,616 ,636 ,655 ,675 ,695 ,695
	 ,695 ,695 ,695 ,675 ,675 ,675 ,675 ,675 ,695 ,695
	 ,695 ,695 ,675 ,675 ,675 ,655 ,655 ,675 ,675 ,675
	 ,695 ,695 ,695 ,695 ,695 ,695 ,695 ,695 ,695 ,695
	 ,715 ,715 ,735 ,735 ,735 ,755 ,735 ,735 ,735 ,715
	 ,715 ,715 ,715 ,715 ,735 ,735 ,755 ,755 ,755 ,755
	 ,735 ,735 ,715 ,695 ,675 ,675 ,675 ,675 ,695 ,715
	 ,735 ,755 ,775 ,775 ,755 ,735 ,715 ,695 ,655 ,655
	 ,636 ,655 ,675 ,695 ,755 ,795 ,854 ,894 ,934 ,974
	 ,1013 ,1033 ,1053 ,1053 ,1073 ,1073 ,1073 ,1093 ,1093 ,1093
	 ,1113 ,1113 ,1113 ,1093 ,1093 ,1093 ,1093 ,1093 ,1093 ,1093
	 ,1093 ,1113 ,1133 ,1133 ,1152 ,1152 ,1152 ,1152 ,1133 ,1133
	 ,1113 ,1093 ,1093 ,1073 ,1073 ,1073 ,1093 ,1113 ,1133 ,1152
	 ,1192 ,1212 ,1232 ,1232 ,1232 ,1232 ,1232 ,1212 ,1212 ,1212
	 ,1212 ,1212 ,1232 ,1252 ,1272 ,1292 ,1311 ,1311 ,1331 ,1331
	 ,1331 ,1331 ,1331 ,1331 ,1331 ,1311 ,1311 ,1292 ,1272 ,1252
	 ,1212 ,1172 ,1133 ,1093 ,1053 ,1013 ,993 ,993 ,974 ,974
	 ,993 ,993 ,1013 ,1013 ,1013 ,1013 ,1013 ,993 ,993 ,993
	 ,974 ,954 ,934 ,914 ,894 ,874 ,854 ,854 ,834 ,834
	 ,815 ,815 ,815 ,834 ,834 ,834 ,834 ,854 ,854 ,854
	 ,854 ,854 ,854 ,854 ,854 ,854 ,834 ,815 ,775 ,755
	 ,715 ,695 ,715 ,755 ,854 ,993 ,1212 ,1471 ,1789 ,2127
	 ,2484 ,2842 ,3140 ,3379 ,3498 ,3518 ,3399 ,3180 ,2842 ,2425
	 ,1967 ,1510 ,1113 ,775 ,516 ,377 ,318 ,337 ,417 ,496
	 ,596 ,675 ,715 ,755 ,755 ,755 ,755 ,755 ,775 ,795
	 ,815 ,834 ,834 ,834 ,815 ,795 ,775 ,755 ,755 ,755
	 ,775 ,795 ,815 ,834 ,834 ,834 ,815 ,795 ,775 ,775
	 ,775 ,775 ,795 ,834 ,854 ,894 ,914 ,914 ,914 ,914
	 ,914 ,894 ,894 ,894 ,894 ,894 ,914 ,914 ,934 ,954
	 ,954 ,954 ,954 ,934 ,934 ,914 ,914 ,914 ,914 ,914
	 ,934 ,954 ,954 ,954 ,974 ,974 ,974 ,993 ,1013 ,1033
	 ,1073 ,1113 ,1152 ,1192 ,1232 ,1272 ,1292 ,1331 ,1351 ,1371
	 ,1391 ,1411 ,1431 ,1451 ,1471 ,1471 ,1490 ,1490 ,1490 ,1490
	 ,1510 ,1510 ,1530 ,1550 ,1570 ,1590 ,1610 ,1610 ,1630 ,1630
	 ,1610 ,1610 ,1590 ,1570 ,1550 ,1510 ,1490 ,1471 ,1431 ,1411
	 ,1371 ,1311 ,1272 ,1232 ,1172 ,1133 ,1093 ,1073 ,1033 ,1013
	 ,993 ,974 ,954 ,914 ,874 ,854 ,815 ,795 ,775 ,755
	 ,735 ,735 ,715 ,715 ,695 ,655 ,636 ,596 ,576 ,556
	 ,536 ,536 ,536 ,556 ,556 ,576 ,576 ,576 ,576 ,576
	 ,576 ,556 ,556 ,576 ,576 ,596 ,596 ,616 ,616 ,616
	 ,616 ,596 ,596 ,596 ,616 ,616 ,616 ,616 ,616 ,616
	 ,616 ,596 ,596 ,596 ,596 ,616 ,636 ,655 ,675 ,695
	 ,715 ,715 ,715 ,715 ,695 ,675 ,675 ,655 ,655 ,655
	 ,675 ,675 ,695 ,695 ,715 ,715 ,715 ,695 ,695 ,675
	 ,675 ,655 ,636 ,636 ,636 ,636 ,636 ,636 ,636 ,636
	 ,636 ,636 ,636 ,636 ,616 ,616 ,616 ,616 ,616 ,616
	 ,616 ,616 ,616 ,616 ,616 ,616 ,596 ,596 ,596 ,576
	 ,576 ,576 ,596 ,596 ,616 ,616 ,636 ,636 ,636 ,636
	 ,616 ,596 ,596 ,576 ,576 ,556 ,556 ,576 ,576 ,576
	 ,576 ,556 ,556 ,536 ,536 ,536 ,536 ,556 ,556 ,596
	 ,616 ,616 ,636 ,616 ,616 ,596 ,576 ,556 ,536 ,536
	 ,536 ,556 ,556 ,556 ,576 ,576 ,556 ,556 ,556 ,556
	 ,556 ,576 ,596 ,616 ,636 ,675 ,675 ,695 ,695 ,695
	 ,675 ,675 ,655 ,655 ,655 ,655 ,655 ,655 ,675 ,695
	 ,715 ,735 ,755 ,795 ,815 ,834 ,854 ,854 ,854 ,854
	 ,834 ,834 ,834 ,834 ,854 ,874 ,874 ,894 ,894 ,894
	 ,874 ,834 ,795 ,755 ,715 ,675 ,655 ,636 ,616 ,636
	 ,636 ,655 ,655 ,655 ,675 ,655 ,655 ,655 ,655 ,636
	 ,636 ,636 ,636 ,616 ,616 ,596 ,596 ,576 ,576 ,576
	 ,576 ,576 ,596 ,616 ,616 ,636 ,636 ,616 ,596 ,576
	 ,556 ,536 ,516 ,496 ,496 ,496 ,496 ,496 ,496 ,496
	 ,477 ,457 ,457 ,477 ,536 ,636 ,795 ,1013 ,1272 ,1590
	 ,1928 ,2266 ,2604 ,2922 ,3160 ,3339 ,3399 ,3359 ,3200 ,2922
	 ,2564 ,2127 ,1689 ,1252 ,854 ,556 ,357 ,258 ,258 ,318
	 ,417 ,536 ,636 ,715 ,755 ,775 ,755 ,735 ,715 ,715
	 ,715 ,715 ,735 ,735 ,735 ,735 ,715 ,695 ,695 ,695
	 ,715 ,755 ,795 ,834 ,854 ,854 ,854 ,834 ,815 ,795
	 ,775 ,775 ,795 ,815 ,854 ,894 ,934 ,954 ,954 ,954
	 ,934 ,934 ,914 ,894 ,894 ,894 ,894 ,894 ,914 ,914
	 ,914 ,914 ,934 ,934 ,954 ,954 ,974 ,993 ,993 ,993
	 ,1013 ,1013 ,1013 ,1013 ,1013 ,1033 ,1053 ,1073 ,1093 ,1113
	 ,1133 ,1152 ,1172 ,1172 ,1192 ,1192 ,1212 ,1252 ,1272 ,1311
	 ,1371 ,1411 ,1471 ,1510 ,1550 ,1570 ,1590 ,1590 ,1590 ,1590
	 ,1590 ,1610 ,1630 ,1649 ,1669 ,1709 ,1729 ,1749 ,1769 ,1769
	 ,1769 ,1749 ,1729 ,1729 ,1729 ,1709 ,1709 ,1689 ,1669 ,1649
	 ,1610 ,1570 ,1510 ,1471 ,1431 ,1391 ,1351 ,1331 ,1311 ,1272
	 ,1252 ,1212 ,1172 ,1133 ,1093 ,1053 ,1033 ,1013 ,993 ,993
	 ,974 ,974 ,954 ,934 ,894 ,874 ,854 ,854 ,834 ,834
	 ,854 ,854 ,854 ,854 ,854 ,834 ,834 ,834 ,834 ,834
	 ,834 ,834 ,834 ,854 ,854 ,854 ,854 ,854 ,854 ,854
	 ,854 ,854 ,834 ,834 ,815 ,775 ,755 ,755 ,735 ,755
	 ,775 ,795 ,834 ,874 ,914 ,934 ,934 ,934 ,914 ,894
	 ,874 ,854 ,834 ,854 ,874 ,894 ,934 ,954 ,974 ,993
	 ,993 ,974 ,954 ,934 ,894 ,854 ,834 ,815 ,795 ,795
	 ,795 ,795 ,795 ,815 ,834 ,854 ,854 ,874 ,874 ,894
	 ,894 ,874 ,874 ,854 ,834 ,834 ,815 ,815 ,795 ,795
	 ,795 ,795 ,795 ,795 ,795 ,795 ,795 ,795 ,775 ,775
	 ,775 ,775 ,775 ,775 ,775 ,775 ,775 ,775 ,775 ,775
	 ,775 ,775 ,755 ,755 ,755 ,755 ,755 ,755 ,775 ,775
	 ,775 ,775 ,755 ,755 ,775 ,775 ,775 ,775 ,775 ,795
	 ,795 ,795 ,795 ,795 ,815 ,815 ,815 ,815 ,815 ,815
	 ,795 ,795 ,795 ,795 ,795 ,795 ,795 ,775 ,775 ,775
	 ,755 ,735 ,735 ,715 ,695 ,695 ,695 ,715 ,715 ,735
	 ,755 ,775 ,795 ,815 ,815 ,834 ,854 ,854 ,874 ,874
	 ,874 ,874 ,874 ,874 ,874 ,874 ,874 ,854 ,854 ,854
	 ,854 ,854 ,874 ,894 ,914 ,934 ,954 ,974 ,993 ,993
	 ,993 ,974 ,974 ,954 ,934 ,934 ,914 ,894 ,894 ,874
	 ,854 ,854 ,834 ,815 ,795 ,795 ,775 ,775 ,755 ,755
	 ,735 ,735 ,715 ,715 ,715 ,715 ,715 ,715 ,715 ,715
	 ,695 ,695 ,675 ,675 ,655 ,655 ,655 ,655 ,655 ,675
	 ,675 ,675 ,675 ,675 ,675 ,655 ,655 ,636 ,636 ,636
	 ,655 ,675 ,675 ,675 ,675 ,675 ,655 ,616 ,596 ,556
	 ,536 ,556 ,596 ,675 ,815 ,993 ,1232 ,1510 ,1848 ,2186
	 ,2524 ,2862 ,3140 ,3359 ,3498 ,3518 ,3419 ,3200 ,2882 ,2484
	 ,2067 ,1630 ,1212 ,874 ,616 ,437 ,357 ,337 ,397 ,477
	 ,556 ,636 ,715 ,755 ,775 ,775 ,775 ,775 ,755 ,755
	 ,735 ,735 ,735 ,735 ,715 ,715 ,695 ,695 ,695 ,695
	 ,695 ,695 ,715 ,715 ,735 ,755 ,755 ,775 ,795 ,815
	 ,834 ,834 ,834 ,834 ,834 ,815 ,815 ,795 ,795 ,795
	 ,795 ,815 ,834 ,854 ,874 ,894 ,914 ,934 ,954 ,974
	 ,993 ,993 ,993 ,974 ,974 ,974 ,954 ,954 ,974 ,974
	 ,993 ,1013 ,1033 ,1053 ,1053 ,1073 ,1073 ,1073 ,1073 ,1093
	 ,1093 ,1113 ,1133 ,1172 ,1192 ,1232 ,1252 ,1292 ,1311 ,1331
	 ,1351 ,1371 ,1411 ,1431 ,1451 ,1490 ,1510 ,1530 ,1570 ,1590
	 ,1610 ,1610 ,1630 ,1649 ,1669 ,1689 ,1709 ,1729 ,1729 ,1729
	 ,1729 ,1729 ,1729 ,1709 ,1709 ,1669 ,1649 ,1610 ,1550 ,1510
	 ,1451 ,1391 ,1351 ,1311 ,1272 ,1252 ,1212 ,1192 ,1172 ,1133
	 ,1093 ,1073 ,1033 ,1013 ,993 ,974 ,954 ,934 ,934 ,914
	 ,894 ,874 ,874 ,854 ,834 ,834 ,815 ,815 ,815 ,795
	 ,795 ,775 ,775 ,755 ,755 ,735 ,735 ,715 ,715 ,695
	 ,675 ,675 ,655 ,636 ,636 ,636 ,636 ,655 ,675 ,715
	 ,735 ,775 ,795 ,815 ,834 ,834 ,834 ,834 ,815 ,795
	 ,775 ,755 ,735 ,715 ,715 ,715 ,715 ,735 ,735 ,755
	 ,755 ,755 ,755 ,755 ,755 ,755 ,735 ,735 ,735 ,735
	 ,755 ,775 ,775 ,795 ,815 ,815 ,815 ,815 ,815 ,795
	 ,775 ,775 ,755 ,755 ,755 ,775 ,795 ,815 ,834 ,854
	 ,874 ,894 ,894 ,914 ,914 ,914 ,894 ,894 ,874 ,874
	 ,854 ,834 ,815 ,815 ,795 ,775 ,755 ,755 ,755 ,755
	 ,775 ,775 ,795 ,815 ,815 ,834 ,834 ,834 ,834 ,815
	 ,815 ,795 ,795 ,795 ,795 ,795 ,795 ,815 ,815 ,834
	 ,834 ,815 ,815 ,795 ,795 ,775 ,775 ,755 ,755 ,755
	 ,755 ,755 ,755 ,755 ,755 ,755 ,755 ,755 ,755 ,755
	 ,775 ,775 ,775 ,775 ,775 ,755 ,755 ,735 ,735 ,715
	 ,695 ,695 ,695 ,695 ,695 ,695 ,715 ,735 ,735 ,735
	 ,755 ,755 ,755 ,755 ,755 ,755 ,735 ,735 ,735 ,735
	 ,735 ,735 ,715 ,715 ,695 ,675 ,675 ,655 ,655 ,675
	 ,695 ,715 ,735 ,775 ,795 ,834 ,854 ,854 ,854 ,854
	 ,854 ,834 ,815 ,795 ,795 ,775 ,775 ,795 ,795 ,815
	 ,815 ,834 ,874 ,894 ,914 ,934 ,954 ,974 ,974 ,974
	 ,974 ,954 ,934 ,914 ,874 ,834 ,795 ,775 ,755 ,715
	 ,715 ,695 ,675 ,675 ,655 ,655 ,655 ,636 ,636 ,636
	 ,636 ,616 ,616 ,616 ,616 ,616 ,636 ,636 ,636 ,655
	 ,655 ,655 ,675 ,655 ,655 ,655 ,636 ,636 ,616 ,616
	 ,596 ,596 ,596 ,596 ,576 ,576 ,576 ,596 ,596 ,596
	 ,616 ,596 ,596 ,576 ,536 ,496 ,457 ,437 ,417 ,457
	 ,516 ,636 ,815 ,1033 ,1311 ,1610 ,1948 ,2286 ,2623 ,2922
	 ,3160 ,3339 ,3399 ,3359 ,3180 ,2902 ,2524 ,2087 ,1649 ,1212
	 ,854 ,576 ,397 ,298 ,298 ,357 ,437 ,516 ,596 ,636
	 ,655 ,655 ,655 ,655 ,655 ,655 ,695 ,715 ,735 ,755
	 ,775 ,775 ,775 ,755 ,735 ,735 ,715 ,715 ,715 ,735
	 ,755 ,755 ,775 ,795 ,795 ,795 ,795 ,795 ,795 ,795
	 ,795 ,795 ,795 ,815 ,815 ,854 ,874 ,894 ,914 ,914
	 ,934 ,934 ,934 ,934 ,914 ,914 ,914 ,914 ,934 ,934
	 ,934 ,934 ,934 ,934 ,934 ,934 ,934 ,954 ,974 ,1013
	 ,1053 ,1093 ,1133 ,1172 ,1192 ,1212 ,1212 ,1212 ,1212 ,1192
	 ,1192 ,1192 ,1192 ,1212 ,1232 ,1272 ,1311 ,1331 ,1371 ,1391
	 ,1431 ,1451 ,1471 ,1490 ,1510 ,1530 ,1550 ,1570 ,1590 ,1610
	 ,1630 ,1649 ,1649 ,1669 ,1669 ,1669 ,1669 ,1689 ,1689 ,1689
	 ,1689 ,1689 ,1669 ,1649 ,1630 ,1610 ,1570 ,1550 ,1510 ,1471
	 ,1451 ,1391 ,1351 ,1311 ,1252 ,1192 ,1152 ,1113 ,1073 ,1033
	 ,1013 ,993 ,993 ,974 ,974 ,954 ,934 ,914 ,894 ,874
	 ,854 ,834 ,815 ,815 ,795 ,795 ,795 ,795 ,775 ,775
	 ,755 ,755 ,755 ,755 ,755 ,755 ,755 ,755 ,735 ,735
	 ,715 ,715 ,695 ,675 ,675 ,675 ,695 ,715 ,735 ,755
	 ,775 ,795 ,815 ,815 ,834 ,834 ,834 ,834 ,815 ,795
	 ,775 ,755 ,735 ,735 ,715 ,715 ,715 ,715 ,715 ,735
	 ,735 ,735 ,755 ,755 ,755 ,775 ,775 ,775 ,795 ,795
	 ,795 ,795 ,795 ,795 ,795 ,795 ,795 ,815 ,815 ,834
	 ,854 ,854 ,874 ,874 ,854 ,854 ,834 ,834 ,815 ,795
	 ,775 ,775 ,775 ,755 ,755 ,755 ,755 ,755 ,755 ,755
	 ,755 ,755 ,755 ,755 ,755 ,775 ,775 ,795 ,795 ,815
	 ,815 ,815 ,795 ,775 ,755 ,735 ,715 ,715 ,715 ,715
	 ,735 ,755 ,775 ,795 ,815 ,815 ,795 ,775 ,755 ,735
	 ,735 ,715 ,715 ,735 ,735 ,755 ,775 ,775 ,775 ,755
	 ,755 ,735 ,715 ,715 ,715 ,715 ,735 ,755 ,755 ,775
	 ,775 ,775 ,755 ,735 ,715 ,695 ,695 ,695 ,715 ,735
	 ,755 ,775 ,775 ,795 ,795 ,775 ,775 ,755 ,735 ,735
	 ,715 ,715 ,715 ,715 ,715 ,735 ,735 ,735 ,735 ,755
	 ,735 ,735 ,735 ,735 ,735 ,755 ,775 ,795 ,815 ,854
	 ,874 ,894 ,894 ,894 ,894 ,874 ,834 ,815 ,815 ,815
	 ,834 ,854 ,914 ,954 ,1013 ,1053 ,1073 ,1093 ,1073 ,1053
	 ,1013 ,974 ,954 ,914 ,894 ,894 ,894 ,894 ,894 ,894
	 ,894 ,894 ,874 ,854 ,834 ,795 ,755 ,735 ,715 ,675
	 ,675 ,655 ,655 ,655 ,675 ,675 ,675 ,675 ,675 ,675
	 ,675 ,695 ,695 ,715 ,735 ,755 ,755 ,755 ,755 ,735
	 ,715 ,695 ,675 ,675 ,655 ,655 ,636 ,636 ,636 ,616
	 ,616 ,616 ,616 ,636 ,655 ,695 ,715 ,715 ,715 ,695
	 ,655 ,596 ,556 ,536 ,556 ,616 ,735 ,914 ,1152 ,1411
	 ,1729 ,2047 ,2345 ,2643 ,2902 ,3101 ,3200 ,3220 ,3120 ,2922
	 ,2623 ,2246 ,1828 ,1391 ,993 ,655 ,417 ,278 ,238 ,278
	 ,357 ,477 ,576 ,675 ,735 ,755 ,775 ,775 ,795 ,795
	 ,815 ,834 ,834 ,854 ,874 ,874 ,874 ,854 ,854 ,874
	 ,874 ,894 ,914 ,914 ,934 ,934 ,914 ,914 ,894 ,874
	 ,874 ,894 ,914 ,914 ,934 ,954 ,954 ,954 ,954 ,954
	 ,934 ,934 ,934 ,934 ,934 ,934 ,954 ,954 ,974 ,974
	 ,993 ,1013 ,1033 ,1053 ,1073 ,1093 ,1113 ,1113 ,1113 ,1093
	 ,1093 ,1073 ,1093 ,1093 ,1113 ,1133 ,1152 ,1172 ,1192 ,1192
	 ,1212 ,1212 ,1232 ,1232 ,1252 ,1272 ,1311 ,1331 ,1351 ,1371
	 ,1391 ,1411 ,1431 ,1451 ,1451 ,1471 ,1510 ,1530 ,1570 ,1610
	 ,1649 ,1669 ,1709 ,1729 ,1749 ,1749 ,1769 ,1769 ,1769 ,1769
	 ,1749 ,1749 ,1729 ,1709 ,1709 ,1689 ,1669 ,1669 ,1669 ,1649
	 ,1649 ,1630 ,1610 ,1590 ,1550 ,1510 ,1471 ,1431 ,1391 ,1351
	 ,1311 ,1272 ,1232 ,1192 ,1152 ,1113 ,1073 ,1013 ,974 ,934
	 ,894 ,874 ,874 ,874 ,874 ,874 ,874 ,874 ,874 ,854
	 ,854 ,834 ,834 ,834 ,834 ,834 ,815 ,815 ,815 ,795
	 ,795 ,775 ,775 ,775 ,775 ,775 ,795 ,815 ,834 ,834
	 ,834 ,834 ,815 ,815 ,795 ,795 ,795 ,775 ,795 ,795
	 ,795 ,795 ,795 ,795 ,795 ,815 ,815 ,815 ,834 ,834
	 ,854 ,854 ,854 ,854 ,854 ,854 ,854 ,854 ,854 ,874
	 ,874 ,894 ,894 ,894 ,894 ,874 ,854 ,834 ,815 ,795
	 ,775 ,795 ,795 ,815 ,815 ,834 ,834 ,834 ,834 ,834
	 ,834 ,834 ,834 ,834 ,834 ,834 ,834 ,815 ,815 ,795
	 ,775 ,775 ,755 ,755 ,775 ,775 ,775 ,795 ,795 ,795
	 ,795 ,775 ,755 ,755 ,735 ,715 ,715 ,715 ,715 ,715
	 ,715 ,715 ,715 ,715 ,735 ,735 ,735 ,755 ,775 ,795
	 ,795 ,815 ,815 ,815 ,815 ,795 ,775 ,755 ,735 ,735
	 ,715 ,695 ,675 ,675 ,675 ,675 ,695 ,695 ,715 ,735
	 ,735 ,755 ,755 ,735 ,735 ,735 ,715 ,715 ,715 ,715
	 ,735 ,735 ,755 ,755 ,755 ,755 ,735 ,715 ,695 ,695
	 ,675 ,675 ,675 ,695 ,695 ,715 ,735 ,735 ,755 ,755
	 ,755 ,735 ,735 ,735 ,735 ,735 ,735 ,755 ,755 ,775
	 ,775 ,775 ,775 ,775 ,775 ,795 ,815 ,834 ,834 ,854
	 ,874 ,894 ,894 ,894 ,874 ,874 ,854 ,854 ,854 ,854
	 ,874 ,894 ,894 ,914 ,934 ,934 ,934 ,934 ,934 ,934
	 ,914 ,914 ,934 ,934 ,934 ,934 ,954 ,934 ,934 ,914
	 ,914 ,894 ,854 ,834 ,815 ,795 ,795 ,775 ,775 ,755
	 ,755 ,755 ,755 ,755 ,755 ,755 ,735 ,735 ,715 ,715
	 ,715 ,715 ,735 ,735 ,755 ,755 ,755 ,755 ,735 ,735
	 ,715 ,715 ,715 ,715 ,715 ,715 ,735 ,715 ,715 ,695
	 ,695 ,675 ,675 ,675 ,675 ,675 ,675 ,675 ,655 ,616
	 ,596 ,596 ,636 ,715 ,834 ,1033 ,1292 ,1590 ,1928 ,2266
	 ,2604 ,2902 ,3140 ,3299 ,3359 ,3319 ,3160 ,2902 ,2544 ,2146
	 ,1709 ,1272 ,894 ,596 ,377 ,258 ,238 ,298 ,397 ,516
	 ,636 ,715 ,775 ,795 ,775 ,755 ,735 ,715 ,695 ,695
	 ,675 ,675 ,675 ,675 ,675 ,695 ,695 ,735 ,755 ,795
	 ,815 ,834 ,854 ,854 ,834 ,834 ,815 ,815 ,815 ,815
	 ,815 ,834 ,834 ,834 ,834 ,834 ,834 ,834 ,834 ,834
	 ,834 ,854 ,854 ,854 ,874 ,874 ,874 ,874 ,874 ,894
	 ,894 ,914 ,934 ,934 ,954 ,954 ,954 ,954 ,974 ,974
	 ,974 ,993 ,1013 ,1033 ,1053 ,1073 ,1113 ,1133 ,1152 ,1172
	 ,1192 ,1192 ,1212 ,1232 ,1252 ,1292 ,1311 ,1331 ,1371 ,1391
	 ,1411 ,1431 ,1451 ,1471 ,1490 ,1510 ,1530 ,1550 ,1570 ,1590
	 ,1590 ,1610 ,1630 ,1630 ,1649 ,1649 ,1669 ,1669 ,1689 ,1689
	 ,1709 ,1729 ,1729 ,1749 ,1749 ,1749 ,1729 ,1689 ,1669 ,1610
	 ,1570 ,1530 ,1471 ,1431 ,1391 ,1351 ,1331 ,1292 ,1252 ,1212
	 ,1172 ,1152 ,1113 ,1093 ,1073 ,1073 ,1053 ,1033 ,1013 ,993
	 ,974 ,954 ,934 ,914 ,894 ,894 ,894 ,894 ,894 ,894
	 ,874 ,874 ,854 ,834 ,834 ,815 ,815 ,815 ,815 ,815
	 ,815 ,815 ,815 ,815 ,815 ,795 ,795 ,795 ,795 ,795
};