const long tabla[10000] = {500384539 ,500384539 ,479535183 ,479535183 ,479535183 ,479535183 ,479535183 ,500384539 ,500384539 ,500384539
	 ,521233895 ,521233895 ,521233895 ,521233895 ,542083250 ,542083250 ,542083250 ,542083250 ,562932606 ,562932606
	 ,562932606 ,562932606 ,562932606 ,562932606 ,562932606 ,562932606 ,562932606 ,583781962 ,583781962 ,583781962
	 ,583781962 ,604631318 ,604631318 ,604631318 ,604631318 ,625480674 ,625480674 ,625480674 ,625480674 ,625480674
	 ,646330029 ,646330029 ,667179385 ,688028741 ,688028741 ,708878097 ,708878097 ,729727453 ,729727453 ,729727453
	 ,729727453 ,708878097 ,708878097 ,729727453 ,729727453 ,750576808 ,771426164 ,771426164 ,792275520 ,813124876
	 ,833974232 ,854823587 ,875672943 ,896522299 ,938221011 ,959070366 ,1000769078 ,1021618434 ,1063317145 ,1084166501
	 ,1084166501 ,1105015857 ,1105015857 ,1105015857 ,1125865213 ,1125865213 ,1146714569 ,1167563924 ,1209262636 ,1250961348
	 ,1292660059 ,1334358771 ,1376057482 ,1396906838 ,1417756194 ,1438605550 ,1459454906 ,1480304261 ,1501153617 ,1501153617
	 ,1501153617 ,1501153617 ,1501153617 ,1480304261 ,1480304261 ,1459454906 ,1438605550 ,1417756194 ,1417756194 ,1396906838
	 ,1396906838 ,1396906838 ,1396906838 ,1376057482 ,1355208127 ,1334358771 ,1292660059 ,1250961348 ,1188413280 ,1146714569
	 ,1084166501 ,1042467790 ,1021618434 ,979919722 ,959070366 ,938221011 ,917371655 ,896522299 ,875672943 ,833974232
	 ,792275520 ,750576808 ,729727453 ,708878097 ,708878097 ,729727453 ,771426164 ,833974232 ,917371655 ,979919722
	 ,1042467790 ,1084166501 ,1105015857 ,1125865213 ,1125865213 ,1105015857 ,1084166501 ,1084166501 ,1084166501 ,1084166501
	 ,1105015857 ,1105015857 ,1125865213 ,1146714569 ,1167563924 ,1188413280 ,1188413280 ,1188413280 ,1188413280 ,1209262636
	 ,1209262636 ,1230111992 ,1230111992 ,1250961348 ,1250961348 ,1271810703 ,1271810703 ,1271810703 ,1271810703 ,1271810703
	 ,1250961348 ,1250961348 ,1250961348 ,1230111992 ,1230111992 ,1230111992 ,1250961348 ,1250961348 ,1271810703 ,1271810703
	 ,1271810703 ,1292660059 ,1292660059 ,1292660059 ,1292660059 ,1271810703 ,1271810703 ,1271810703 ,1271810703 ,1250961348
	 ,1250961348 ,1250961348 ,1250961348 ,1250961348 ,1250961348 ,1230111992 ,1230111992 ,1230111992 ,1250961348 ,1250961348
	 ,1250961348 ,1271810703 ,1271810703 ,1292660059 ,1292660059 ,1292660059 ,1292660059 ,1271810703 ,1271810703 ,1250961348
	 ,1250961348 ,1230111992 ,1209262636 ,1209262636 ,1209262636 ,1188413280 ,1188413280 ,1188413280 ,1188413280 ,1188413280
	 ,1167563924 ,1167563924 ,1167563924 ,1146714569 ,1125865213 ,1125865213 ,1105015857 ,1105015857 ,1084166501 ,1084166501
	 ,1105015857 ,1105015857 ,1125865213 ,1146714569 ,1167563924 ,1167563924 ,1167563924 ,1167563924 ,1167563924 ,1167563924
	 ,1167563924 ,1167563924 ,1188413280 ,1188413280 ,1188413280 ,1188413280 ,1167563924 ,1146714569 ,1125865213 ,1105015857
	 ,1063317145 ,1063317145 ,1063317145 ,1063317145 ,1084166501 ,1125865213 ,1146714569 ,1146714569 ,1167563924 ,1167563924
	 ,1146714569 ,1125865213 ,1105015857 ,1084166501 ,1084166501 ,1105015857 ,1105015857 ,1125865213 ,1167563924 ,1188413280
	 ,1209262636 ,1230111992 ,1230111992 ,1230111992 ,1250961348 ,1230111992 ,1230111992 ,1230111992 ,1209262636 ,1209262636
	 ,1188413280 ,1167563924 ,1167563924 ,1146714569 ,1167563924 ,1188413280 ,1209262636 ,1230111992 ,1271810703 ,1292660059
	 ,1313509415 ,1334358771 ,1313509415 ,1292660059 ,1271810703 ,1250961348 ,1209262636 ,1188413280 ,1167563924 ,1146714569
	 ,1146714569 ,1125865213 ,1105015857 ,1063317145 ,1042467790 ,1021618434 ,1021618434 ,1000769078 ,1000769078 ,1021618434
	 ,1042467790 ,1042467790 ,1063317145 ,1063317145 ,1063317145 ,1063317145 ,1063317145 ,1042467790 ,1042467790 ,1042467790
	 ,1021618434 ,1021618434 ,1000769078 ,1000769078 ,979919722 ,959070366 ,938221011 ,938221011 ,938221011 ,938221011
	 ,938221011 ,938221011 ,938221011 ,938221011 ,917371655 ,917371655 ,896522299 ,875672943 ,854823587 ,854823587
	 ,854823587 ,854823587 ,854823587 ,875672943 ,875672943 ,854823587 ,833974232 ,813124876 ,792275520 ,792275520
	 ,833974232 ,917371655 ,1084166501 ,1292660059 ,1563701685 ,1897291377 ,-2147483648 ,-2147483648 ,-2147483648 ,-2147483648
	 ,-2147483648 ,-2147483648 ,-2147483648 ,-2147483648 ,-2147483648 ,-2147483648 ,-2147483648 ,-2147483648 ,1772195243 ,1355208127
	 ,979919722 ,688028741 ,479535183 ,375288404 ,354439048 ,396137760 ,500384539 ,604631318 ,729727453 ,813124876
	 ,875672943 ,917371655 ,917371655 ,896522299 ,875672943 ,833974232 ,833974232 ,813124876 ,813124876 ,813124876
	 ,813124876 ,833974232 ,833974232 ,833974232 ,813124876 ,813124876 ,813124876 ,792275520 ,792275520 ,792275520
	 ,792275520 ,792275520 ,792275520 ,813124876 ,813124876 ,833974232 ,854823587 ,854823587 ,875672943 ,875672943
	 ,875672943 ,875672943 ,875672943 ,875672943 ,875672943 ,875672943 ,854823587 ,854823587 ,854823587 ,854823587
	 ,875672943 ,875672943 ,896522299 ,896522299 ,917371655 ,938221011 ,938221011 ,938221011 ,938221011 ,938221011
	 ,938221011 ,938221011 ,938221011 ,938221011 ,959070366 ,979919722 ,1000769078 ,1021618434 ,1042467790 ,1063317145
	 ,1084166501 ,1084166501 ,1105015857 ,1105015857 ,1125865213 ,1146714569 ,1167563924 ,1188413280 ,1209262636 ,1250961348
	 ,1271810703 ,1271810703 ,1292660059 ,1292660059 ,1292660059 ,1292660059 ,1292660059 ,1313509415 ,1334358771 ,1355208127
	 ,1376057482 ,1417756194 ,1459454906 ,1480304261 ,1522002973 ,1542852329 ,1563701685 ,1563701685 ,1584551040 ,1584551040
	 ,1584551040 ,1584551040 ,1584551040 ,1605400396 ,1605400396 ,1626249752 ,1647099108 ,1667948464 ,1688797819 ,1709647175
	 ,1709647175 ,1688797819 ,1667948464 ,1626249752 ,1563701685 ,1522002973 ,1480304261 ,1459454906 ,1438605550 ,1417756194
	 ,1396906838 ,1376057482 ,1334358771 ,1292660059 ,1230111992 ,1167563924 ,1105015857 ,1042467790 ,1000769078 ,959070366
	 ,959070366 ,959070366 ,959070366 ,959070366 ,959070366 ,938221011 ,917371655 ,875672943 ,833974232 ,813124876
	 ,792275520 ,771426164 ,771426164 ,771426164 ,792275520 ,771426164 ,771426164 ,750576808 ,729727453 ,688028741
	 ,667179385 ,667179385 ,646330029 ,646330029 ,667179385 ,688028741 ,708878097 ,729727453 ,729727453 ,750576808
	 ,750576808 ,750576808 ,750576808 ,750576808 ,750576808 ,750576808 ,750576808 ,750576808 ,729727453 ,729727453
	 ,708878097 ,708878097 ,708878097 ,708878097 ,729727453 ,729727453 ,750576808 ,750576808 ,750576808 ,771426164
	 ,750576808 ,750576808 ,750576808 ,729727453 ,729727453 ,729727453 ,729727453 ,729727453 ,729727453 ,708878097
	 ,708878097 ,708878097 ,688028741 ,688028741 ,688028741 ,688028741 ,708878097 ,708878097 ,729727453 ,750576808
	 ,750576808 ,771426164 ,750576808 ,750576808 ,750576808 ,729727453 ,729727453 ,729727453 ,729727453 ,750576808
	 ,750576808 ,771426164 ,792275520 ,813124876 ,813124876 ,833974232 ,833974232 ,833974232 ,833974232 ,833974232
	 ,833974232 ,833974232 ,833974232 ,833974232 ,854823587 ,854823587 ,854823587 ,833974232 ,833974232 ,833974232
	 ,813124876 ,792275520 ,792275520 ,771426164 ,771426164 ,771426164 ,771426164 ,771426164 ,771426164 ,771426164
	 ,771426164 ,771426164 ,750576808 ,750576808 ,729727453 ,729727453 ,708878097 ,708878097 ,708878097 ,729727453
	 ,729727453 ,729727453 ,729727453 ,729727453 ,729727453 ,729727453 ,729727453 ,729727453 ,729727453 ,729727453
	 ,729727453 ,750576808 ,771426164 ,771426164 ,792275520 ,792275520 ,813124876 ,813124876 ,813124876 ,833974232
	 ,833974232 ,854823587 ,854823587 ,875672943 ,875672943 ,896522299 ,896522299 ,896522299 ,896522299 ,896522299
	 ,896522299 ,896522299 ,875672943 ,875672943 ,854823587 ,854823587 ,833974232 ,833974232 ,833974232 ,854823587
	 ,854823587 ,875672943 ,917371655 ,938221011 ,959070366 ,979919722 ,979919722 ,979919722 ,979919722 ,959070366
	 ,938221011 ,917371655 ,896522299 ,875672943 ,854823587 ,833974232 ,813124876 ,792275520 ,750576808 ,729727453
	 ,688028741 ,667179385 ,646330029 ,646330029 ,646330029 ,646330029 ,667179385 ,667179385 ,667179385 ,667179385
	 ,667179385 ,667179385 ,667179385 ,667179385 ,667179385 ,667179385 ,667179385 ,667179385 ,646330029 ,646330029
	 ,625480674 ,604631318 ,583781962 ,583781962 ,583781962 ,583781962 ,604631318 ,625480674 ,625480674 ,625480674
	 ,625480674 ,604631318 ,583781962 ,562932606 ,542083250 ,542083250 ,542083250 ,542083250 ,542083250 ,542083250
	 ,521233895 ,500384539 ,458685827 ,437836471 ,437836471 ,479535183 ,583781962 ,750576808 ,959070366 ,1230111992
	 ,1563701685 ,1918140733 ,-2147483648 ,-2147483648 ,-2147483648 ,-2147483648 ,-2147483648 ,-2147483648 ,-2147483648 ,-2147483648
	 ,-2147483648 ,-2147483648 ,-2147483648 ,1813893954 ,1334358771 ,917371655 ,583781962 ,354439048 ,229342913 ,208493558
	 ,271041625 ,396137760 ,521233895 ,646330029 ,729727453 ,750576808 ,750576808 ,708878097 ,667179385 ,625480674
	 ,583781962 ,562932606 ,562932606 ,583781962 ,604631318 ,625480674 ,625480674 ,646330029 ,646330029 ,646330029
	 ,646330029 ,646330029 ,646330029 ,667179385 ,688028741 ,688028741 ,708878097 ,708878097 ,708878097 ,688028741
	 ,688028741 ,688028741 ,708878097 ,708878097 ,729727453 ,750576808 ,771426164 ,792275520 ,792275520 ,813124876
	 ,813124876 ,833974232 ,833974232 ,854823587 ,875672943 ,875672943 ,896522299 ,917371655 ,917371655 ,917371655
	 ,917371655 ,896522299 ,896522299 ,896522299 ,896522299 ,896522299 ,917371655 ,938221011 ,959070366 ,1000769078
	 ,1021618434 ,1042467790 ,1063317145 ,1063317145 ,1063317145 ,1063317145 ,1063317145 ,1042467790 ,1042467790 ,1021618434
	 ,1021618434 ,1042467790 ,1063317145 ,1084166501 ,1125865213 ,1167563924 ,1230111992 ,1271810703 ,1292660059 ,1334358771
	 ,1355208127 ,1376057482 ,1396906838 ,1417756194 ,1438605550 ,1459454906 ,1501153617 ,1522002973 ,1563701685 ,1584551040
	 ,1626249752 ,1647099108 ,1647099108 ,1667948464 ,1667948464 ,1667948464 ,1688797819 ,1709647175 ,1709647175 ,1709647175
	 ,1709647175 ,1709647175 ,1688797819 ,1667948464 ,1626249752 ,1605400396 ,1584551040 ,1563701685 ,1563701685 ,1563701685
	 ,1563701685 ,1563701685 ,1542852329 ,1522002973 ,1480304261 ,1438605550 ,1355208127 ,1292660059 ,1230111992 ,1167563924
	 ,1125865213 ,1105015857 ,1105015857 ,1084166501 ,1084166501 ,1063317145 ,1063317145 ,1021618434 ,979919722 ,938221011
	 ,896522299 ,854823587 ,833974232 ,813124876 ,792275520 ,792275520 ,792275520 ,792275520 ,771426164 ,771426164
	 ,750576808 ,729727453 ,729727453 ,708878097 ,708878097 ,688028741 ,688028741 ,708878097 ,708878097 ,729727453
	 ,729727453 ,729727453 ,750576808 ,750576808 ,729727453 ,729727453 ,729727453 ,729727453 ,729727453 ,729727453
	 ,708878097 ,708878097 ,708878097 ,708878097 ,708878097 ,688028741 ,688028741 ,688028741 ,667179385 ,667179385
	 ,646330029 ,625480674 ,604631318 ,604631318 ,583781962 ,583781962 ,583781962 ,604631318 ,625480674 ,646330029
	 ,667179385 ,688028741 ,708878097 ,708878097 ,708878097 ,708878097 ,708878097 ,688028741 ,688028741 ,688028741
	 ,708878097 ,708878097 ,729727453 ,729727453 ,750576808 ,750576808 ,729727453 ,729727453 ,708878097 ,708878097
	 ,688028741 ,688028741 ,667179385 ,667179385 ,667179385 ,667179385 ,667179385 ,667179385 ,667179385 ,667179385
	 ,667179385 ,646330029 ,646330029 ,646330029 ,646330029 ,646330029 ,646330029 ,646330029 ,646330029 ,646330029
	 ,646330029 ,646330029 ,646330029 ,625480674 ,625480674 ,625480674 ,625480674 ,604631318 ,604631318 ,583781962
	 ,583781962 ,562932606 ,562932606 ,562932606 ,562932606 ,562932606 ,562932606 ,562932606 ,562932606 ,562932606
	 ,562932606 ,542083250 ,542083250 ,521233895 ,521233895 ,521233895 ,500384539 ,500384539 ,500384539 ,500384539
	 ,500384539 ,500384539 ,500384539 ,500384539 ,500384539 ,521233895 ,521233895 ,521233895 ,542083250 ,542083250
	 ,542083250 ,521233895 ,521233895 ,500384539 ,479535183 ,479535183 ,458685827 ,479535183 ,479535183 ,521233895
	 ,542083250 ,562932606 ,583781962 ,604631318 ,583781962 ,562932606 ,542083250 ,521233895 ,500384539 ,479535183
	 ,479535183 ,479535183 ,479535183 ,500384539 ,500384539 ,500384539 ,500384539 ,521233895 ,521233895 ,542083250
	 ,583781962 ,625480674 ,688028741 ,750576808 ,813124876 ,875672943 ,938221011 ,979919722 ,1000769078 ,1021618434
	 ,1042467790 ,1042467790 ,1042467790 ,1042467790 ,1063317145 ,1063317145 ,1084166501 ,1105015857 ,1146714569 ,1167563924
	 ,1188413280 ,1230111992 ,1250961348 ,1271810703 ,1292660059 ,1313509415 ,1313509415 ,1313509415 ,1334358771 ,1334358771
	 ,1334358771 ,1334358771 ,1313509415 ,1313509415 ,1313509415 ,1292660059 ,1292660059 ,1271810703 ,1250961348 ,1250961348
	 ,1230111992 ,1209262636 ,1209262636 ,1188413280 ,1167563924 ,1146714569 ,1146714569 ,1125865213 ,1105015857 ,1105015857
	 ,1105015857 ,1105015857 ,1105015857 ,1125865213 ,1125865213 ,1125865213 ,1125865213 ,1105015857 ,1084166501 ,1063317145
	 ,1042467790 ,1021618434 ,1000769078 ,979919722 ,959070366 ,959070366 ,959070366 ,959070366 ,959070366 ,979919722
	 ,979919722 ,1000769078 ,1000769078 ,1021618434 ,1021618434 ,1000769078 ,1000769078 ,1000769078 ,979919722 ,979919722
	 ,979919722 ,979919722 ,959070366 ,959070366 ,959070366 ,938221011 ,896522299 ,875672943 ,833974232 ,813124876
	 ,792275520 ,813124876 ,875672943 ,979919722 ,1146714569 ,1355208127 ,1626249752 ,1938990089 ,-2147483648 ,-2147483648
	 ,-2147483648 ,-2147483648 ,-2147483648 ,-2147483648 ,-2147483648 ,-2147483648 ,-2147483648 ,-2147483648 ,-2147483648 ,-2147483648
	 ,-2147483648 ,1834743310 ,1396906838 ,1042467790 ,792275520 ,667179385 ,625480674 ,667179385 ,750576808 ,833974232
	 ,938221011 ,1000769078 ,1021618434 ,1042467790 ,1042467790 ,1042467790 ,1042467790 ,1063317145 ,1084166501 ,1105015857
	 ,1105015857 ,1125865213 ,1125865213 ,1105015857 ,1084166501 ,1063317145 ,1042467790 ,1021618434 ,1021618434 ,1042467790
	 ,1063317145 ,1084166501 ,1105015857 ,1105015857 ,1125865213 ,1105015857 ,1105015857 ,1084166501 ,1084166501 ,1084166501
	 ,1063317145 ,1063317145 ,1063317145 ,1063317145 ,1063317145 ,1063317145 ,1063317145 ,1063317145 ,1063317145 ,1063317145
	 ,1084166501 ,1084166501 ,1105015857 ,1125865213 ,1146714569 ,1146714569 ,1167563924 ,1167563924 ,1167563924 ,1167563924
	 ,1167563924 ,1146714569 ,1146714569 ,1146714569 ,1167563924 ,1167563924 ,1167563924 ,1188413280 ,1188413280 ,1188413280
	 ,1209262636 ,1209262636 ,1230111992 ,1250961348 ,1271810703 ,1292660059 ,1313509415 ,1334358771 ,1355208127 ,1355208127
	 ,1376057482 ,1376057482 ,1376057482 ,1396906838 ,1417756194 ,1438605550 ,1480304261 ,1522002973 ,1563701685 ,1605400396
	 ,1667948464 ,1688797819 ,1730496531 ,1751345887 ,1751345887 ,1772195243 ,1772195243 ,1772195243 ,1772195243 ,1772195243
	 ,1793044598 ,1813893954 ,1834743310 ,1834743310 ,1855592666 ,1876442022 ,1876442022 ,1876442022 ,1855592666 ,1834743310
	 ,1813893954 ,1793044598 ,1772195243 ,1751345887 ,1751345887 ,1730496531 ,1709647175 ,1688797819 ,1647099108 ,1605400396
	 ,1542852329 ,1480304261 ,1417756194 ,1355208127 ,1292660059 ,1250961348 ,1209262636 ,1188413280 ,1167563924 ,1167563924
	 ,1146714569 ,1105015857 ,1084166501 ,1042467790 ,1000769078 ,959070366 ,917371655 ,896522299 ,875672943 ,854823587
	 ,854823587 ,833974232 ,833974232 ,813124876 ,771426164 ,750576808 ,729727453 ,708878097 ,708878097 ,708878097
	 ,708878097 ,729727453 ,729727453 ,729727453 ,708878097 ,688028741 ,667179385 ,646330029 ,604631318 ,604631318
	 ,604631318 ,604631318 ,625480674 ,646330029 ,667179385 ,667179385 ,667179385 ,646330029 ,625480674 ,604631318
	 ,583781962 ,562932606 ,562932606 ,562932606 ,562932606 ,604631318 ,625480674 ,667179385 ,688028741 ,708878097
	 ,729727453 ,708878097 ,708878097 ,688028741 ,667179385 ,646330029 ,625480674 ,625480674 ,604631318 ,604631318
	 ,604631318 ,625480674 ,625480674 ,646330029 ,646330029 ,667179385 ,667179385 ,688028741 ,688028741 ,688028741
	 ,688028741 ,667179385 ,667179385 ,646330029 ,625480674 ,625480674 ,625480674 ,625480674 ,625480674 ,646330029
	 ,646330029 ,667179385 ,667179385 ,667179385 ,667179385 ,667179385 ,646330029 ,646330029 ,646330029 ,646330029
	 ,646330029 ,646330029 ,646330029 ,646330029 ,625480674 ,604631318 ,604631318 ,583781962 ,583781962 ,562932606
	 ,562932606 ,562932606 ,583781962 ,583781962 ,583781962 ,604631318 ,604631318 ,604631318 ,604631318 ,604631318
	 ,583781962 ,583781962 ,583781962 ,604631318 ,604631318 ,625480674 ,646330029 ,667179385 ,688028741 ,688028741
	 ,708878097 ,708878097 ,708878097 ,688028741 ,667179385 ,646330029 ,604631318 ,583781962 ,583781962 ,562932606
	 ,583781962 ,583781962 ,604631318 ,646330029 ,646330029 ,667179385 ,667179385 ,667179385 ,646330029 ,625480674
	 ,625480674 ,604631318 ,583781962 ,583781962 ,583781962 ,583781962 ,583781962 ,583781962 ,583781962 ,583781962
	 ,562932606 ,562932606 ,562932606 ,562932606 ,562932606 ,562932606 ,562932606 ,562932606 ,562932606 ,583781962
	 ,583781962 ,583781962 ,604631318 ,625480674 ,625480674 ,646330029 ,667179385 ,667179385 ,688028741 ,688028741
	 ,667179385 ,667179385 ,646330029 ,625480674 ,604631318 ,604631318 ,604631318 ,604631318 ,604631318 ,625480674
	 ,625480674 ,646330029 ,646330029 ,646330029 ,646330029 ,646330029 ,646330029 ,625480674 ,625480674 ,625480674
	 ,646330029 ,646330029 ,646330029 ,667179385 ,667179385 ,688028741 ,688028741 ,708878097 ,708878097 ,708878097
	 ,708878097 ,708878097 ,708878097 ,688028741 ,667179385 ,646330029 ,646330029 ,625480674 ,625480674 ,625480674
	 ,646330029 ,667179385 ,667179385 ,688028741 ,688028741 ,688028741 ,688028741 ,688028741 ,688028741 ,688028741
	 ,708878097 ,708878097 ,729727453 ,729727453 ,750576808 ,750576808 ,750576808 ,750576808 ,750576808 ,750576808
	 ,750576808 ,750576808 ,750576808 ,771426164 ,771426164 ,792275520 ,792275520 ,813124876 ,813124876 ,833974232
	 ,854823587 ,875672943 ,896522299 ,896522299 ,917371655 ,938221011 ,959070366 ,959070366 ,959070366 ,959070366
	 ,959070366 ,959070366 ,938221011 ,938221011 ,938221011 ,938221011 ,938221011 ,938221011 ,938221011 ,938221011
	 ,917371655 ,917371655 ,896522299 ,875672943 ,854823587 ,813124876 ,792275520 ,750576808 ,729727453 ,688028741
	 ,667179385 ,667179385 ,646330029 ,646330029 ,667179385 ,688028741 ,688028741 ,708878097 ,729727453 ,729727453
	 ,750576808 ,750576808 ,729727453 ,729727453 ,708878097 ,708878097 ,688028741 ,667179385 ,667179385 ,646330029
	 ,625480674 ,625480674 ,625480674 ,625480674 ,625480674 ,625480674 ,625480674 ,625480674 ,625480674 ,625480674
	 ,625480674 ,625480674 ,646330029 ,646330029 ,667179385 ,667179385 ,688028741 ,688028741 ,688028741 ,667179385
	 ,646330029 ,625480674 ,604631318 ,583781962 ,583781962 ,604631318 ,646330029 ,729727453 ,854823587 ,1042467790
	 ,1271810703 ,1542852329 ,1876442022 ,-2147483648 ,-2147483648 ,-2147483648 ,-2147483648 ,-2147483648 ,-2147483648 ,-2147483648
	 ,-2147483648 ,-2147483648 ,-2147483648 ,-2147483648 ,2147483647 ,1667948464 ,1209262636 ,833974232 ,562932606 ,416987116
	 ,354439048 ,354439048 ,416987116 ,521233895 ,604631318 ,667179385 ,729727453 ,771426164 ,792275520 ,792275520
	 ,813124876 ,833974232 ,854823587 ,875672943 ,896522299 ,917371655 ,917371655 ,917371655 ,896522299 ,896522299
	 ,875672943 ,875672943 ,875672943 ,875672943 ,875672943 ,875672943 ,896522299 ,875672943 ,875672943 ,875672943
	 ,875672943 ,896522299 ,896522299 ,917371655 ,917371655 ,938221011 ,938221011 ,959070366 ,959070366 ,959070366
	 ,959070366 ,938221011 ,938221011 ,938221011 ,959070366 ,938221011 ,938221011 ,938221011 ,938221011 ,938221011
	 ,938221011 ,938221011 ,938221011 ,959070366 ,979919722 ,1000769078 ,1021618434 ,1042467790 ,1042467790 ,1063317145
	 ,1063317145 ,1084166501 ,1084166501 ,1105015857 ,1125865213 ,1146714569 ,1188413280 ,1209262636 ,1230111992 ,1230111992
	 ,1250961348 ,1250961348 ,1250961348 ,1250961348 ,1250961348 ,1271810703 ,1292660059 ,1334358771 ,1355208127 ,1376057482
	 ,1417756194 ,1438605550 ,1459454906 ,1480304261 ,1501153617 ,1522002973 ,1542852329 ,1584551040 ,1605400396 ,1647099108
	 ,1667948464 ,1709647175 ,1730496531 ,1751345887 ,1751345887 ,1772195243 ,1793044598 ,1793044598 ,1813893954 ,1834743310
	 ,1855592666 ,1855592666 ,1876442022 ,1897291377 ,1918140733 ,1918140733 ,1918140733 ,1897291377 ,1876442022 ,1834743310
	 ,1793044598 ,1730496531 ,1688797819 ,1626249752 ,1584551040 ,1563701685 ,1542852329 ,1542852329 ,1542852329 ,1542852329
	 ,1522002973 ,1501153617 ,1459454906 ,1396906838 ,1313509415 ,1250961348 ,1167563924 ,1105015857 ,1063317145 ,1042467790
	 ,1042467790 ,1042467790 ,1042467790 ,1042467790 ,1042467790 ,1021618434 ,979919722 ,959070366 ,917371655 ,875672943
	 ,875672943 ,854823587 ,854823587 ,854823587 ,854823587 ,854823587 ,854823587 ,854823587 ,833974232 ,833974232
	 ,813124876 ,792275520 ,771426164 ,771426164 ,771426164 ,771426164 ,771426164 ,771426164 ,792275520 ,792275520
	 ,792275520 ,771426164 ,771426164 ,750576808 ,750576808 ,750576808 ,750576808 ,750576808 ,771426164 ,771426164
	 ,792275520 ,813124876 ,833974232 ,854823587 ,854823587 ,833974232 ,813124876 ,792275520 ,771426164 ,750576808
	 ,729727453 ,729727453 ,708878097 ,708878097 ,708878097 ,708878097 ,729727453 ,750576808 ,771426164 ,771426164
	 ,792275520 ,792275520 ,792275520 ,792275520 ,771426164 ,771426164 ,750576808 ,750576808 ,750576808 ,750576808
	 ,771426164 ,813124876 ,854823587 ,875672943 ,896522299 ,917371655 ,917371655 ,896522299 ,875672943 ,854823587
	 ,813124876 ,792275520 ,792275520 ,792275520 ,792275520 ,813124876 ,833974232 ,854823587 ,854823587 ,875672943
	 ,875672943 ,875672943 ,875672943 ,854823587 ,854823587 ,833974232 ,833974232 ,813124876 ,813124876 ,792275520
	 ,792275520 ,771426164 ,771426164 ,750576808 ,729727453 ,729727453 ,729727453 ,729727453 ,750576808 ,771426164
	 ,792275520 ,813124876 ,833974232 ,833974232 ,833974232 ,813124876 ,792275520 ,750576808 ,729727453 ,688028741
	 ,688028741 ,667179385 ,667179385 ,688028741 ,688028741 ,708878097 ,708878097 ,708878097 ,708878097 ,688028741
	 ,688028741 ,667179385 ,667179385 ,667179385 ,688028741 ,688028741 ,708878097 ,729727453 ,750576808 ,750576808
	 ,771426164 ,771426164 ,771426164 ,771426164 ,771426164 ,771426164 ,750576808 ,750576808 ,729727453 ,708878097
	 ,688028741 ,667179385 ,667179385 ,646330029 ,646330029 ,667179385 ,688028741 ,708878097 ,729727453 ,750576808
	 ,750576808 ,750576808 ,729727453 ,708878097 ,708878097 ,688028741 ,667179385 ,646330029 ,625480674 ,625480674
	 ,604631318 ,604631318 ,604631318 ,604631318 ,604631318 ,604631318 ,625480674 ,625480674 ,646330029 ,646330029
	 ,667179385 ,688028741 ,688028741 ,708878097 ,708878097 ,708878097 ,708878097 ,708878097 ,688028741 ,688028741
	 ,667179385 ,667179385 ,667179385 ,688028741 ,688028741 ,708878097 ,729727453 ,750576808 ,792275520 ,813124876
	 ,833974232 ,833974232 ,854823587 ,875672943 ,896522299 ,917371655 ,938221011 ,979919722 ,1000769078 ,1021618434
	 ,1042467790 ,1063317145 ,1063317145 ,1084166501 ,1084166501 ,1105015857 ,1105015857 ,1125865213 ,1146714569 ,1167563924
	 ,1167563924 ,1188413280 ,1209262636 ,1230111992 ,1230111992 ,1230111992 ,1230111992 ,1230111992 ,1230111992 ,1230111992
	 ,1250961348 ,1250961348 ,1271810703 ,1292660059 ,1313509415 ,1334358771 ,1355208127 ,1355208127 ,1376057482 ,1396906838
	 ,1417756194 ,1438605550 ,1438605550 ,1459454906 ,1459454906 ,1459454906 ,1459454906 ,1459454906 ,1459454906 ,1438605550
	 ,1417756194 ,1396906838 ,1396906838 ,1396906838 ,1376057482 ,1376057482 ,1376057482 ,1376057482 ,1376057482 ,1376057482
	 ,1355208127 ,1334358771 ,1334358771 ,1313509415 ,1292660059 ,1292660059 ,1292660059 ,1271810703 ,1271810703 ,1250961348
	 ,1230111992 ,1209262636 ,1188413280 ,1167563924 ,1146714569 ,1146714569 ,1125865213 ,1125865213 ,1146714569 ,1146714569
	 ,1125865213 ,1125865213 ,1105015857 ,1084166501 ,1063317145 ,1042467790 ,1021618434 ,1021618434 ,1021618434 ,1042467790
	 ,1063317145 ,1084166501 ,1105015857 ,1125865213 ,1146714569 ,1146714569 ,1146714569 ,1125865213 ,1105015857 ,1084166501
	 ,1063317145 ,1042467790 ,1042467790 ,1042467790 ,1042467790 ,1042467790 ,1042467790 ,1042467790 ,1021618434 ,1000769078
	 ,959070366 ,938221011 ,917371655 ,917371655 ,959070366 ,1042467790 ,1167563924 ,1355208127 ,1584551040 ,1855592666
	 ,-2147483648 ,-2147483648 ,-2147483648 ,-2147483648 ,-2147483648 ,-2147483648 ,-2147483648 ,-2147483648 ,-2147483648 ,-2147483648
	 ,-2147483648 ,-2147483648 ,2147483647 ,1667948464 ,1250961348 ,917371655 ,667179385 ,542083250 ,500384539 ,562932606
	 ,646330029 ,771426164 ,896522299 ,1000769078 ,1063317145 ,1105015857 ,1105015857 ,1105015857 ,1105015857 ,1105015857
	 ,1105015857 ,1125865213 ,1146714569 ,1146714569 ,1146714569 ,1146714569 ,1125865213 ,1105015857 ,1084166501 ,1063317145
	 ,1042467790 ,1042467790 ,1042467790 ,1042467790 ,1063317145 ,1063317145 ,1084166501 ,1084166501 ,1084166501 ,1105015857
	 ,1105015857 ,1084166501 ,1084166501 ,1084166501 ,1084166501 ,1084166501 ,1084166501 ,1084166501 ,1105015857 ,1105015857
	 ,1105015857 ,1105015857 ,1105015857 ,1105015857 ,1105015857 ,1105015857 ,1105015857 ,1125865213 ,1125865213 ,1146714569
	 ,1167563924 ,1188413280 ,1209262636 ,1230111992 ,1250961348 ,1250961348 ,1271810703 ,1250961348 ,1250961348 ,1230111992
	 ,1209262636 ,1188413280 ,1188413280 ,1188413280 ,1188413280 ,1209262636 ,1209262636 ,1230111992 ,1250961348 ,1271810703
	 ,1292660059 ,1313509415 ,1334358771 ,1376057482 ,1396906838 ,1438605550 ,1480304261 ,1501153617 ,1522002973 ,1542852329
	 ,1563701685 ,1563701685 ,1563701685 ,1584551040 ,1584551040 ,1605400396 ,1626249752 ,1667948464 ,1688797819 ,1730496531
	 ,1751345887 ,1772195243 ,1772195243 ,1772195243 ,1772195243 ,1772195243 ,1751345887 ,1751345887 ,1751345887 ,1751345887
	 ,1772195243 ,1793044598 ,1793044598 ,1793044598 ,1793044598 ,1772195243 ,1772195243 ,1730496531 ,1709647175 ,1667948464
	 ,1626249752 ,1584551040 ,1542852329 ,1501153617 ,1438605550 ,1396906838 ,1355208127 ,1292660059 ,1230111992 ,1188413280
	 ,1146714569 ,1105015857 ,1063317145 ,1021618434 ,1000769078 ,979919722 ,938221011 ,917371655 ,896522299 ,875672943
	 ,854823587 ,813124876 ,792275520 ,771426164 ,750576808 ,750576808 ,729727453 ,729727453 ,708878097 ,708878097
	 ,688028741 ,646330029 ,625480674 ,583781962 ,562932606 ,542083250 ,521233895 ,521233895 ,521233895 ,521233895
	 ,542083250 ,542083250 ,562932606 ,562932606 ,562932606 ,562932606 ,542083250 ,542083250 ,542083250 ,542083250
	 ,542083250 ,542083250 ,542083250 ,542083250 ,521233895 ,521233895 ,500384539 ,500384539 ,500384539 ,479535183
	 ,479535183 ,500384539 ,500384539 ,521233895 ,521233895 ,542083250 ,542083250 ,542083250 ,542083250 ,542083250
	 ,542083250 ,521233895 ,521233895 ,521233895 ,521233895 ,542083250 ,542083250 ,562932606 ,583781962 ,583781962
	 ,604631318 ,604631318 ,604631318 ,583781962 ,562932606 ,562932606 ,542083250 ,542083250 ,542083250 ,542083250
	 ,562932606 ,604631318 ,625480674 ,646330029 ,667179385 ,688028741 ,688028741 ,667179385 ,646330029 ,625480674
	 ,604631318 ,583781962 ,583781962 ,583781962 ,604631318 ,604631318 ,625480674 ,625480674 ,625480674 ,625480674
	 ,625480674 ,604631318 ,604631318 ,604631318 ,604631318 ,604631318 ,625480674 ,646330029 ,646330029 ,646330029
	 ,646330029 ,625480674 ,604631318 ,583781962 ,562932606 ,562932606 ,542083250 ,542083250 ,521233895 ,542083250
	 ,542083250 ,542083250 ,542083250 ,562932606 ,562932606 ,583781962 ,583781962 ,583781962 ,583781962 ,583781962
	 ,562932606 ,562932606 ,542083250 ,542083250 ,542083250 ,521233895 ,521233895 ,521233895 ,521233895 ,521233895
	 ,500384539 ,500384539 ,500384539 ,479535183 ,479535183 ,479535183 ,500384539 ,521233895 ,542083250 ,562932606
	 ,583781962 ,604631318 ,604631318 ,604631318 ,604631318 ,583781962 ,562932606 ,542083250 ,542083250 ,521233895
	 ,521233895 ,542083250 ,542083250 ,562932606 ,583781962 ,583781962 ,604631318 ,604631318 ,604631318 ,583781962
	 ,583781962 ,562932606 ,542083250 ,521233895 ,521233895 ,500384539 ,521233895 ,521233895 ,542083250 ,562932606
	 ,583781962 ,604631318 ,625480674 ,625480674 ,604631318 ,583781962 ,542083250 ,521233895 ,500384539 ,479535183
	 ,458685827 ,479535183 ,500384539 ,521233895 ,542083250 ,583781962 ,604631318 ,625480674 ,625480674 ,625480674
	 ,625480674 ,604631318 ,604631318 ,583781962 ,583781962 ,583781962 ,583781962 ,583781962 ,583781962 ,604631318
	 ,604631318 ,604631318 ,604631318 ,604631318 ,604631318 ,604631318 ,583781962 ,583781962 ,583781962 ,562932606
	 ,562932606 ,562932606 ,562932606 ,583781962 ,604631318 ,625480674 ,646330029 ,667179385 ,708878097 ,729727453
	 ,729727453 ,750576808 ,750576808 ,750576808 ,750576808 ,750576808 ,750576808 ,771426164 ,771426164 ,771426164
	 ,792275520 ,813124876 ,833974232 ,833974232 ,854823587 ,875672943 ,875672943 ,875672943 ,875672943 ,875672943
	 ,854823587 ,854823587 ,833974232 ,813124876 ,813124876 ,792275520 ,792275520 ,771426164 ,771426164 ,750576808
	 ,729727453 ,729727453 ,708878097 ,688028741 ,688028741 ,667179385 ,667179385 ,667179385 ,667179385 ,646330029
	 ,646330029 ,646330029 ,646330029 ,625480674 ,604631318 ,604631318 ,583781962 ,562932606 ,562932606 ,542083250
	 ,542083250 ,542083250 ,542083250 ,542083250 ,542083250 ,542083250 ,562932606 ,562932606 ,562932606 ,562932606
	 ,562932606 ,583781962 ,583781962 ,604631318 ,625480674 ,625480674 ,625480674 ,625480674 ,625480674 ,625480674
	 ,604631318 ,583781962 ,583781962 ,562932606 ,562932606 ,542083250 ,542083250 ,521233895 ,500384539 ,500384539
	 ,479535183 ,500384539 ,521233895 ,604631318 ,708878097 ,896522299 ,1105015857 ,1396906838 ,1709647175 ,2064086224
	 ,-2147483648 ,-2147483648 ,-2147483648 ,-2147483648 ,-2147483648 ,-2147483648 ,-2147483648 ,-2147483648 ,-2147483648 ,-2147483648
	 ,2064086224 ,1605400396 ,1167563924 ,813124876 ,542083250 ,375288404 ,291890981 ,291890981 ,354439048 ,416987116
	 ,500384539 ,583781962 ,625480674 ,667179385 ,667179385 ,667179385 ,667179385 ,688028741 ,688028741 ,708878097
	 ,729727453 ,750576808 ,771426164 ,771426164 ,771426164 ,771426164 ,771426164 ,771426164 ,771426164 ,792275520
	 ,792275520 ,792275520 ,792275520 ,792275520 ,792275520 ,792275520 ,792275520 ,813124876 ,813124876 ,833974232
	 ,833974232 ,854823587 ,854823587 ,854823587 ,854823587 ,854823587 ,854823587 ,854823587 ,854823587 ,854823587
	 ,875672943 ,896522299 ,917371655 ,938221011 ,959070366 ,959070366 ,979919722 ,979919722 ,979919722 ,979919722
	 ,979919722 ,979919722 ,979919722 ,979919722 ,1000769078 ,1000769078 ,1021618434 ,1042467790 ,1042467790 ,1063317145
	 ,1063317145 ,1063317145 ,1084166501 ,1084166501 ,1084166501 ,1084166501 ,1105015857 ,1125865213 ,1146714569 ,1167563924
	 ,1188413280 ,1209262636 ,1230111992 ,1250961348 ,1271810703 ,1292660059 ,1313509415 ,1334358771 ,1355208127 ,1376057482
	 ,1396906838 ,1417756194 ,1459454906 ,1480304261 ,1522002973 ,1542852329 ,1584551040 ,1605400396 ,1647099108 ,1667948464
	 ,1688797819 ,1709647175 ,1709647175 ,1730496531 ,1751345887 ,1751345887 ,1751345887 ,1751345887 ,1751345887 ,1751345887
	 ,1751345887 ,1751345887 ,1751345887 ,1751345887 ,1751345887 ,1730496531 ,1730496531 ,1730496531 ,1709647175 ,1688797819
	 ,1667948464 ,1626249752 ,1584551040 ,1542852329 ,1501153617 ,1459454906 ,1417756194 ,1396906838 ,1355208127 ,1313509415
	 ,1271810703 ,1230111992 ,1188413280 ,1125865213 ,1084166501 ,1042467790 ,1000769078 ,979919722 ,959070366 ,959070366
	 ,959070366 ,959070366 ,959070366 ,959070366 ,938221011 ,917371655 ,917371655 ,896522299 ,875672943 ,854823587
	 ,833974232 ,833974232 ,833974232 ,833974232 ,854823587 ,854823587 ,875672943 ,875672943 ,875672943 ,875672943
	 ,854823587 ,833974232 ,813124876 ,792275520 ,771426164 ,750576808 ,729727453 ,708878097 ,708878097 ,729727453
	 ,729727453 ,750576808 ,771426164 ,771426164 ,792275520 ,813124876 ,813124876 ,833974232 ,833974232 ,854823587
	 ,854823587 ,854823587 ,854823587 ,854823587 ,833974232 ,833974232 ,813124876 ,813124876 ,813124876 ,813124876
	 ,833974232 ,833974232 ,854823587 ,875672943 ,896522299 ,917371655 ,917371655 ,917371655 ,938221011 ,938221011
	 ,938221011 ,938221011 ,938221011 ,938221011 ,938221011 ,938221011 ,938221011 ,917371655 ,896522299 ,896522299
	 ,875672943 ,875672943 ,854823587 ,854823587 ,875672943 ,875672943 ,875672943 ,875672943 ,875672943 ,875672943
	 ,875672943 ,854823587 ,854823587 ,833974232 ,833974232 ,833974232 ,833974232 ,833974232 ,854823587 ,875672943
	 ,896522299 ,896522299 ,917371655 ,917371655 ,917371655 ,917371655 ,917371655 ,917371655 ,896522299 ,896522299
	 ,875672943 ,875672943 ,854823587 ,854823587 ,854823587 ,833974232 ,833974232 ,813124876 ,813124876 ,813124876
	 ,813124876 ,813124876 ,813124876 ,813124876 ,833974232 ,833974232 ,854823587 ,854823587 ,854823587 ,854823587
	 ,854823587 ,833974232 ,813124876 ,813124876 ,792275520 ,792275520 ,792275520 ,813124876 ,813124876 ,833974232
	 ,833974232 ,833974232 ,813124876 ,792275520 ,750576808 ,729727453 ,708878097 ,708878097 ,708878097 ,708878097
	 ,729727453 ,750576808 ,771426164 ,792275520 ,792275520 ,792275520 ,792275520 ,792275520 ,792275520 ,771426164
	 ,771426164 ,771426164 ,771426164 ,771426164 ,771426164 ,771426164 ,771426164 ,771426164 ,771426164 ,771426164
	 ,750576808 ,750576808 ,750576808 ,750576808 ,750576808 ,750576808 ,750576808 ,750576808 ,750576808 ,771426164
	 ,771426164 ,792275520 ,792275520 ,792275520 ,792275520 ,771426164 ,771426164 ,750576808 ,750576808 ,729727453
	 ,729727453 ,729727453 ,729727453 ,729727453 ,708878097 ,708878097 ,708878097 ,688028741 ,688028741 ,688028741
	 ,667179385 ,688028741 ,688028741 ,708878097 ,729727453 ,729727453 ,750576808 ,750576808 ,729727453 ,729727453
	 ,708878097 ,667179385 ,646330029 ,625480674 ,604631318 ,604631318 ,625480674 ,646330029 ,667179385 ,688028741
	 ,708878097 ,729727453 ,729727453 ,708878097 ,708878097 ,688028741 ,688028741 ,688028741 ,688028741 ,688028741
	 ,708878097 ,729727453 ,750576808 ,750576808 ,750576808 ,750576808 ,750576808 ,771426164 ,771426164 ,771426164
	 ,792275520 ,813124876 ,833974232 ,854823587 ,875672943 ,896522299 ,896522299 ,896522299 ,896522299 ,896522299
	 ,896522299 ,917371655 ,959070366 ,979919722 ,1042467790 ,1084166501 ,1125865213 ,1167563924 ,1209262636 ,1250961348
	 ,1271810703 ,1292660059 ,1313509415 ,1334358771 ,1355208127 ,1355208127 ,1376057482 ,1396906838 ,1396906838 ,1396906838
	 ,1396906838 ,1376057482 ,1355208127 ,1334358771 ,1313509415 ,1292660059 ,1292660059 ,1292660059 ,1292660059 ,1313509415
	 ,1334358771 ,1334358771 ,1355208127 ,1355208127 ,1355208127 ,1355208127 ,1355208127 ,1355208127 ,1334358771 ,1334358771
	 ,1334358771 ,1334358771 ,1313509415 ,1313509415 ,1313509415 ,1292660059 ,1292660059 ,1271810703 ,1271810703 ,1271810703
	 ,1271810703 ,1271810703 ,1271810703 ,1271810703 ,1271810703 ,1271810703 ,1271810703 ,1250961348 ,1250961348 ,1230111992
	 ,1209262636 ,1209262636 ,1188413280 ,1167563924 ,1146714569 ,1125865213 ,1105015857 ,1105015857 ,1105015857 ,1146714569
	 ,1230111992 ,1334358771 ,1522002973 ,1730496531 ,2022387512 ,-2147483648 ,-2147483648 ,-2147483648 ,-2147483648 ,-2147483648
	 ,-2147483648 ,-2147483648 ,-2147483648 ,-2147483648 ,-2147483648 ,-2147483648 ,-2147483648 ,-2147483648 ,-2147483648 ,1793044598
	 ,1396906838 ,1105015857 ,917371655 ,833974232 ,854823587 ,917371655 ,1021618434 ,1125865213 ,1230111992 ,1292660059
	 ,1334358771 ,1334358771 ,1334358771 ,1334358771 ,1313509415 ,1313509415 ,1334358771 ,1334358771 ,1334358771 ,1355208127
	 ,1334358771 ,1334358771 ,1313509415 ,1292660059 ,1292660059 ,1271810703 ,1250961348 ,1250961348 ,1250961348 ,1250961348
	 ,1230111992 ,1230111992 ,1230111992 ,1230111992 ,1230111992 ,1230111992 ,1250961348 ,1250961348 ,1271810703 ,1271810703
	 ,1292660059 ,1292660059 ,1292660059 ,1292660059 ,1292660059 ,1292660059 ,1292660059 ,1292660059 ,1292660059 ,1313509415
	 ,1334358771 ,1355208127 ,1376057482 ,1396906838 ,1417756194 ,1417756194 ,1417756194 ,1417756194 ,1417756194 ,1417756194
	 ,1417756194 ,1417756194 ,1417756194 ,1438605550 ,1438605550 ,1459454906 ,1480304261 ,1480304261 ,1480304261 ,1480304261
	 ,1480304261 ,1480304261 ,1480304261 ,1480304261 ,1480304261 ,1480304261 ,1501153617 ,1522002973 ,1563701685 ,1584551040
	 ,1605400396 ,1647099108 ,1667948464 ,1688797819 ,1709647175 ,1751345887 ,1772195243 ,1813893954 ,1834743310 ,1876442022
	 ,1897291377 ,1938990089 ,1959839445 ,1980688801 ,2001538156 ,2022387512 ,2043236868 ,2043236868 ,2064086224 ,2064086224
	 ,2084935580 ,2105784935 ,2105784935 ,2126634291 ,2126634291 ,2147483647 ,2147483647 ,-2147483648 ,-2147483648 ,-2147483648
	 ,-2147483648 ,2147483647 ,2126634291 ,2105784935 ,2064086224 ,2001538156 ,1959839445 ,1897291377 ,1855592666 ,1793044598
	 ,1751345887 ,1709647175 ,1667948464 ,1605400396 ,1563701685 ,1501153617 ,1438605550 ,1376057482 ,1334358771 ,1271810703
	 ,1250961348 ,1209262636 ,1188413280 ,1167563924 ,1146714569 ,1125865213 ,1084166501 ,1042467790 ,1000769078 ,938221011
	 ,896522299 ,854823587 ,833974232 ,813124876 ,792275520 ,792275520 ,792275520 ,813124876 ,792275520 ,792275520
	 ,792275520 ,771426164 ,750576808 ,729727453 ,729727453 ,729727453 ,729727453 ,729727453 ,729727453 ,729727453
	 ,729727453 ,708878097 ,688028741 ,688028741 ,667179385 ,646330029 ,646330029 ,646330029 ,646330029 ,646330029
	 ,667179385 ,667179385 ,688028741 ,688028741 ,688028741 ,688028741 ,667179385 ,667179385 ,667179385 ,667179385
	 ,667179385 ,667179385 ,667179385 ,667179385 ,646330029 ,625480674 ,625480674 ,604631318 ,583781962 ,583781962
	 ,562932606 ,583781962 ,583781962 ,604631318 ,604631318 ,625480674 ,625480674 ,625480674 ,625480674 ,625480674
	 ,646330029 ,646330029 ,646330029 ,667179385 ,667179385 ,667179385 ,688028741 ,688028741 ,667179385 ,667179385
	 ,646330029 ,625480674 ,604631318 ,604631318 ,583781962 ,583781962 ,583781962 ,583781962 ,604631318 ,604631318
	 ,625480674 ,625480674 ,625480674 ,625480674 ,604631318 ,583781962 ,562932606 ,542083250 ,521233895 ,521233895
	 ,500384539 ,500384539 ,500384539 ,521233895 ,521233895 ,542083250 ,562932606 ,562932606 ,583781962 ,583781962
	 ,583781962 ,562932606 ,562932606 ,562932606 ,562932606 ,562932606 ,562932606 ,562932606 ,562932606 ,562932606
	 ,542083250 ,542083250 ,521233895 ,500384539 ,479535183 ,458685827 ,437836471 ,437836471 ,437836471 ,416987116
	 ,416987116 ,416987116 ,437836471 ,437836471 ,437836471 ,458685827 ,458685827 ,479535183 ,479535183 ,479535183
	 ,479535183 ,458685827 ,458685827 ,437836471 ,416987116 ,375288404 ,375288404 ,354439048 ,354439048 ,354439048
	 ,375288404 ,396137760 ,396137760 ,416987116 ,416987116 ,437836471 ,437836471 ,437836471 ,437836471 ,437836471
	 ,437836471 ,437836471 ,437836471 ,437836471 ,437836471 ,437836471 ,437836471 ,437836471 ,437836471 ,437836471
	 ,437836471 ,458685827 ,458685827 ,479535183 ,479535183 ,479535183 ,479535183 ,458685827 ,458685827 ,437836471
	 ,437836471 ,437836471 ,437836471 ,437836471 ,458685827 ,479535183 ,500384539 ,521233895 ,521233895 ,542083250
	 ,542083250 ,542083250 ,542083250 ,542083250 ,521233895 ,521233895 ,521233895 ,500384539 ,500384539 ,500384539
	 ,500384539 ,500384539 ,521233895 ,542083250 ,562932606 ,583781962 ,604631318 ,604631318 ,604631318 ,604631318
	 ,604631318 ,583781962 ,583781962 ,583781962 ,583781962 ,583781962 ,604631318 ,625480674 ,625480674 ,625480674
	 ,625480674 ,625480674 ,625480674 ,646330029 ,646330029 ,667179385 ,708878097 ,729727453 ,771426164 ,813124876
	 ,833974232 ,854823587 ,875672943 ,875672943 ,875672943 ,854823587 ,833974232 ,813124876 ,771426164 ,729727453
	 ,708878097 ,667179385 ,646330029 ,604631318 ,583781962 ,562932606 ,562932606 ,542083250 ,542083250 ,521233895
	 ,500384539 ,500384539 ,479535183 ,458685827 ,458685827 ,458685827 ,458685827 ,479535183 ,500384539 ,500384539
	 ,521233895 ,542083250 ,542083250 ,542083250 ,542083250 ,521233895 ,521233895 ,500384539 ,479535183 ,479535183
	 ,458685827 ,437836471 ,437836471 ,416987116 ,416987116 ,437836471 ,437836471 ,458685827 ,479535183 ,479535183
	 ,500384539 ,500384539 ,500384539 ,479535183 ,458685827 ,437836471 ,437836471 ,416987116 ,416987116 ,416987116
	 ,416987116 ,416987116 ,416987116 ,437836471 ,458685827 ,521233895 ,646330029 ,813124876 ,1042467790 ,1334358771
	 ,1688797819 ,2043236868 ,-2147483648 ,-2147483648 ,-2147483648 ,-2147483648 ,-2147483648 ,-2147483648 ,-2147483648 ,-2147483648
	 ,-2147483648 ,2064086224 ,1647099108 ,1230111992 ,854823587 ,562932606 ,333589692 ,187644202 ,125096134 ,145945490
	 ,208493558 ,312740337 ,437836471 ,542083250 ,625480674 ,667179385 ,708878097 ,708878097 ,708878097 ,708878097
	 ,708878097 ,729727453 ,729727453 ,729727453 ,729727453 ,708878097 ,688028741 ,667179385 ,646330029 ,625480674
	 ,625480674 ,625480674 ,646330029 ,667179385 ,708878097 ,729727453 ,750576808 ,771426164 ,771426164 ,771426164
	 ,771426164 ,750576808 ,750576808 ,750576808 ,750576808 ,750576808 ,771426164 ,771426164 ,792275520 ,792275520
	 ,792275520 ,792275520 ,792275520 ,792275520 ,792275520 ,792275520 ,792275520 ,792275520 ,813124876 ,813124876
	 ,833974232 ,854823587 ,896522299 ,917371655 ,938221011 ,959070366 ,979919722 ,979919722 ,1000769078 ,1000769078
	 ,1021618434 ,1021618434 ,1042467790 ,1063317145 ,1063317145 ,1084166501 ,1105015857 ,1105015857 ,1125865213 ,1125865213
	 ,1105015857 ,1105015857 ,1105015857 ,1105015857 ,1125865213 ,1146714569 ,1167563924 ,1209262636 ,1250961348 ,1292660059
	 ,1334358771 ,1376057482 ,1396906838 ,1438605550 ,1459454906 ,1480304261 ,1501153617 ,1522002973 ,1542852329 ,1563701685
	 ,1584551040 ,1605400396 ,1626249752 ,1647099108 ,1647099108 ,1647099108 ,1647099108 ,1647099108 ,1647099108 ,1647099108
	 ,1647099108 ,1667948464 ,1667948464 ,1688797819 ,1709647175 ,1709647175 ,1730496531 ,1709647175 ,1709647175 ,1688797819
	 ,1667948464 ,1626249752 ,1605400396 ,1563701685 ,1522002973 ,1480304261 ,1438605550 ,1396906838 ,1355208127 ,1313509415
	 ,1271810703 ,1230111992 ,1209262636 ,1188413280 ,1167563924 ,1146714569 ,1125865213 ,1105015857 ,1084166501 ,1063317145
	 ,1021618434 ,979919722 ,938221011 ,896522299 ,875672943 ,854823587 ,833974232 ,813124876 ,813124876 ,813124876
	 ,813124876 ,833974232 ,833974232 ,833974232 ,813124876 ,813124876 ,813124876 ,792275520 ,771426164 ,771426164
	 ,771426164 ,750576808 ,750576808 ,750576808 ,750576808 ,750576808 ,750576808 ,771426164 ,771426164 ,771426164
	 ,792275520 ,792275520 ,792275520 ,792275520 ,813124876 ,813124876 ,813124876 ,813124876 ,813124876 ,813124876
	 ,813124876 ,813124876 ,833974232 ,833974232 ,833974232 ,833974232 ,813124876 ,813124876 ,813124876 ,792275520
	 ,792275520 ,792275520 ,792275520 ,792275520 ,813124876 ,833974232 ,833974232 ,854823587 ,875672943 ,875672943
	 ,896522299 ,896522299 ,896522299 ,875672943 ,875672943 ,854823587 ,833974232 ,833974232 ,813124876 ,813124876
	 ,813124876 ,813124876 ,833974232 ,833974232 ,875672943 ,896522299 ,917371655 ,917371655 ,917371655 ,917371655
	 ,917371655 ,896522299 ,875672943 ,854823587 ,854823587 ,833974232 ,833974232 ,854823587 ,854823587 ,854823587
	 ,875672943 ,875672943 ,875672943 ,875672943 ,875672943 ,875672943 ,875672943 ,875672943 ,854823587 ,854823587
	 ,854823587 ,833974232 ,833974232 ,813124876 ,813124876 ,792275520 ,792275520 ,792275520 ,792275520 ,792275520
	 ,792275520 ,792275520 ,771426164 ,771426164 ,771426164 ,771426164 ,771426164 ,771426164 ,792275520 ,792275520
	 ,813124876 ,813124876 ,813124876 ,813124876 ,813124876 ,792275520 ,792275520 ,792275520 ,792275520 ,792275520
	 ,813124876 ,833974232 ,854823587 ,854823587 ,875672943 ,875672943 ,875672943 ,854823587 ,854823587 ,833974232
	 ,813124876 ,813124876 ,792275520 ,813124876 ,813124876 ,833974232 ,854823587 ,854823587 ,854823587 ,854823587
	 ,833974232 ,813124876 ,792275520 ,750576808 ,729727453 ,708878097 ,688028741 ,688028741 ,688028741 ,708878097
	 ,729727453 ,750576808 ,771426164 ,792275520 ,792275520 ,813124876 ,813124876 ,833974232 ,833974232 ,833974232
	 ,833974232 ,833974232 ,833974232 ,813124876 ,813124876 ,792275520 ,792275520 ,771426164 ,771426164 ,771426164
	 ,771426164 ,771426164 ,771426164 ,771426164 ,771426164 ,771426164 ,771426164 ,771426164 ,771426164 ,771426164
	 ,750576808 ,750576808 ,771426164 ,792275520 ,813124876 ,833974232 ,875672943 ,917371655 ,938221011 ,959070366
	 ,959070366 ,938221011 ,938221011 ,917371655 ,896522299 ,875672943 ,854823587 ,875672943 ,896522299 ,917371655
	 ,959070366 ,1000769078 ,1021618434 ,1063317145 ,1063317145 ,1084166501 ,1084166501 ,1063317145 ,1063317145 ,1042467790
	 ,1042467790 ,1042467790 ,1021618434 ,1021618434 ,1000769078 ,979919722 ,938221011 ,896522299 ,854823587 ,813124876
	 ,771426164 ,750576808 ,729727453 ,729727453 ,729727453 ,729727453 ,750576808 ,750576808 ,750576808 ,750576808
	 ,750576808 ,750576808 ,729727453 ,729727453 ,729727453 ,729727453 ,729727453 ,729727453 ,729727453 ,729727453
	 ,729727453 ,708878097 ,688028741 ,688028741 ,667179385 ,667179385 ,646330029 ,667179385 ,667179385 ,688028741
	 ,688028741 ,708878097 ,708878097 ,708878097 ,708878097 ,708878097 ,708878097 ,708878097 ,708878097 ,688028741
	 ,688028741 ,646330029 ,625480674 ,583781962 ,562932606 ,542083250 ,542083250 ,562932606 ,625480674 ,750576808
	 ,896522299 ,1105015857 ,1355208127 ,1605400396 ,1897291377 ,-2147483648 ,-2147483648 ,-2147483648 ,-2147483648 ,-2147483648
	 ,-2147483648 ,-2147483648 ,-2147483648 ,-2147483648 ,-2147483648 ,1876442022 ,1480304261 ,1105015857 ,771426164 ,521233895
	 ,354439048 ,291890981 ,312740337 ,375288404 ,479535183 ,604631318 ,688028741 ,750576808 ,792275520 ,771426164
	 ,750576808 ,729727453 ,708878097 ,708878097 ,729727453 ,750576808 ,792275520 ,813124876 ,833974232 ,813124876
	 ,792275520 ,750576808 ,708878097 ,688028741 ,646330029 ,646330029 ,646330029 ,667179385 ,708878097 ,729727453
	 ,771426164 ,792275520 ,792275520 ,813124876 ,792275520 ,792275520 ,792275520 ,792275520 ,792275520 ,792275520
	 ,813124876 ,833974232 ,833974232 ,854823587 ,854823587 ,854823587 ,854823587 ,875672943 ,917371655 ,959070366
	 ,1000769078 ,1063317145 ,1125865213 ,1188413280 ,1271810703 ,1313509415 ,1355208127 ,1396906838 ,1438605550 ,1459454906
	 ,1501153617 ,1522002973 ,1542852329 ,1563701685 ,1584551040 ,1584551040 ,1605400396 ,1605400396 ,1626249752 ,1647099108
	 ,1688797819 ,1709647175 ,1751345887 ,1793044598 ,1834743310 ,1855592666 ,1876442022 ,1897291377 ,1897291377 ,1876442022
	 ,1876442022 ,1876442022 ,1897291377 ,1918140733 ,1959839445 ,2001538156 ,2064086224 ,2105784935 ,2147483647 ,-2147483648
	 ,-2147483648 ,-2147483648 ,-2147483648 ,-2147483648 ,-2147483648 ,-2147483648 ,-2147483648 ,-2147483648 ,-2147483648 ,-2147483648
	 ,-2147483648 ,-2147483648 ,-2147483648 ,-2147483648 ,-2147483648 ,-2147483648 ,-2147483648 ,-2147483648 ,-2147483648 ,-2147483648
	 ,-2147483648 ,-2147483648 ,-2147483648 ,-2147483648 ,-2147483648 ,-2147483648 ,-2147483648 ,2126634291 ,2084935580 ,2043236868
	 ,2001538156 ,1959839445 ,1938990089 ,1897291377 ,1855592666 ,1813893954 ,1772195243 ,1730496531 ,1688797819 ,1647099108
	 ,1626249752 ,1605400396 ,1584551040 ,1563701685 ,1542852329 ,1522002973 ,1522002973 ,1501153617 ,1480304261 ,1459454906
	 ,1459454906 ,1438605550 ,1438605550 ,1438605550 ,1417756194 ,1417756194 ,1417756194 ,1396906838 ,1376057482 ,1355208127
	 ,1313509415 ,1292660059 ,1271810703 ,1250961348 ,1250961348 ,1250961348 ,1271810703 ,1292660059 ,1313509415 ,1334358771
	 ,1334358771 ,1334358771 ,1313509415 ,1292660059 ,1271810703 ,1250961348 ,1230111992 ,1230111992 ,1230111992 ,1230111992
	 ,1250961348 ,1250961348 ,1250961348 ,1250961348 ,1250961348 ,1250961348 ,1250961348 ,1230111992 ,1230111992 ,1230111992
	 ,1230111992 ,1230111992 ,1230111992 ,1230111992 ,1230111992 ,1209262636 ,1209262636 ,1209262636 ,1209262636 ,1188413280
	 ,1188413280 ,1188413280 ,1188413280 ,1188413280 ,1188413280 ,1167563924 ,1167563924 ,1167563924 ,1146714569 ,1146714569
	 ,1146714569 ,1146714569 ,1146714569 ,1146714569 ,1146714569 ,1146714569 ,1125865213 ,1125865213 ,1105015857 ,1105015857
	 ,1084166501 ,1063317145 ,1063317145 ,1042467790 ,1042467790 ,1063317145 ,1063317145 ,1063317145 ,1084166501 ,1084166501
	 ,1084166501 ,1084166501 ,1063317145 ,1042467790 ,1021618434 ,1000769078 ,979919722 ,959070366 ,959070366 ,938221011
	 ,938221011 ,938221011 ,959070366 ,959070366 ,959070366 ,959070366 ,959070366 ,959070366 ,938221011 ,938221011
	 ,938221011 ,917371655 ,917371655 ,896522299 ,896522299 ,896522299 ,896522299 ,896522299 ,896522299 ,917371655
	 ,917371655 ,917371655 ,917371655 ,917371655 ,896522299 ,896522299 ,896522299 ,875672943 ,854823587 ,854823587
	 ,833974232 ,813124876 ,792275520 ,771426164 ,771426164 ,771426164 ,792275520 ,813124876 ,833974232 ,854823587
	 ,875672943 ,875672943 ,875672943 ,854823587 ,813124876 ,771426164 ,729727453 ,708878097 ,688028741 ,667179385
	 ,688028741 ,708878097 ,729727453 ,771426164 ,792275520 ,792275520 ,792275520 ,792275520 ,771426164 ,750576808
	 ,729727453 ,708878097 ,688028741 ,667179385 ,646330029 ,646330029 ,625480674 ,625480674 ,625480674 ,625480674
	 ,625480674 ,625480674 ,625480674 ,646330029 ,667179385 ,688028741 ,688028741 ,708878097 ,708878097 ,688028741
	 ,688028741 ,688028741 ,688028741 ,688028741 ,688028741 ,708878097 ,729727453 ,750576808 ,771426164 ,792275520
	 ,813124876 ,813124876 ,792275520 ,771426164 ,750576808 ,729727453 ,708878097 ,688028741 ,688028741 ,708878097
	 ,729727453 ,750576808 ,792275520 ,854823587 ,896522299 ,917371655 ,959070366 ,959070366 ,959070366 ,938221011
	 ,917371655 ,896522299 ,854823587 ,833974232 ,813124876 ,792275520 ,792275520 ,792275520 ,792275520 ,771426164
	 ,771426164 ,750576808 ,729727453 ,708878097 ,667179385 ,625480674 ,604631318 ,562932606 ,542083250 ,542083250
	 ,521233895 ,521233895 ,521233895 ,521233895 ,521233895 ,521233895 ,542083250 ,542083250 ,542083250 ,562932606
	 ,562932606 ,562932606 ,542083250 ,542083250 ,521233895 ,500384539 ,458685827 ,437836471 ,437836471 ,437836471
	 ,437836471 ,437836471 ,458685827 ,479535183 ,500384539 ,521233895 ,521233895 ,521233895 ,521233895 ,500384539
	 ,479535183 ,458685827 ,437836471 ,437836471 ,416987116 ,396137760 ,396137760 ,375288404 ,375288404 ,375288404
	 ,396137760 ,437836471 ,500384539 ,625480674 ,792275520 ,1000769078 ,1271810703 ,1584551040 ,1918140733 ,-2147483648
	 ,-2147483648 ,-2147483648 ,-2147483648 ,-2147483648 ,-2147483648 ,-2147483648 ,-2147483648 ,2126634291 ,1709647175 ,1313509415
	 ,917371655 ,604631318 ,354439048 ,208493558 ,125096134 ,125096134 ,166794846 ,250192269 ,333589692 ,396137760
	 ,458685827 ,500384539 ,521233895 ,542083250 ,562932606 ,562932606 ,562932606 ,583781962 ,583781962 ,583781962
	 ,583781962 ,583781962 ,562932606 ,562932606 ,542083250 ,542083250 ,542083250 ,542083250 ,562932606 ,604631318
	 ,625480674 ,667179385 ,688028741 ,708878097 ,729727453 ,729727453 ,708878097 ,708878097 ,688028741 ,667179385
	 ,646330029 ,646330029 ,667179385 ,688028741 ,708878097 ,729727453 ,771426164 ,792275520 ,813124876 ,813124876
	 ,813124876 ,792275520 ,771426164 ,750576808 ,729727453 ,708878097 ,708878097 ,708878097 ,708878097 ,729727453
	 ,750576808 ,771426164 ,771426164 ,792275520 ,792275520 ,792275520 ,792275520 ,813124876 ,833974232 ,833974232
	 ,875672943 ,896522299 ,917371655 ,938221011 ,959070366 ,959070366 ,979919722 ,979919722 ,1000769078 ,1021618434
	 ,1042467790 ,1063317145 ,1084166501 ,1105015857 ,1125865213 ,1146714569 ,1146714569 ,1167563924 ,1167563924 ,1209262636
	 ,1230111992 ,1271810703 ,1334358771 ,1396906838 ,1438605550 ,1480304261 ,1522002973 ,1542852329 ,1542852329 ,1542852329
	 ,1522002973 ,1522002973 ,1522002973 ,1522002973 ,1542852329 ,1563701685 ,1584551040 ,1605400396 ,1605400396 ,1584551040
	 ,1563701685 ,1542852329 ,1522002973 ,1501153617 ,1501153617 ,1480304261 ,1480304261 ,1480304261 ,1480304261 ,1459454906
	 ,1417756194 ,1376057482 ,1313509415 ,1250961348 ,1188413280 ,1125865213 ,1084166501 ,1042467790 ,1000769078 ,979919722
	 ,959070366 ,938221011 ,917371655 ,896522299 ,854823587 ,833974232 ,813124876 ,792275520 ,750576808 ,729727453
	 ,708878097 ,667179385 ,646330029 ,625480674 ,604631318 ,604631318 ,604631318 ,604631318 ,604631318 ,625480674
	 ,625480674 ,625480674 ,604631318 ,604631318 ,583781962 ,562932606 ,542083250 ,542083250 ,521233895 ,542083250
	 ,542083250 ,562932606 ,604631318 ,625480674 ,646330029 ,646330029 ,646330029 ,625480674 ,625480674 ,604631318
	 ,583781962 ,562932606 ,562932606 ,583781962 ,604631318 ,625480674 ,646330029 ,688028741 ,708878097 ,708878097
	 ,708878097 ,688028741 ,646330029 ,625480674 ,583781962 ,562932606 ,542083250 ,542083250 ,542083250 ,562932606
	 ,604631318 ,625480674 ,667179385 ,688028741 ,708878097 ,708878097 ,708878097 ,688028741 ,688028741 ,688028741
	 ,667179385 ,667179385 ,667179385 ,646330029 ,646330029 ,646330029 ,646330029 ,646330029 ,646330029 ,646330029
	 ,646330029 ,667179385 ,688028741 ,708878097 ,708878097 ,729727453 ,750576808 ,750576808 ,750576808 ,750576808
	 ,750576808 ,750576808 ,750576808 ,750576808 ,750576808 ,771426164 ,771426164 ,771426164 ,750576808 ,750576808
	 ,750576808 ,729727453 ,729727453 ,708878097 ,708878097 ,688028741 ,667179385 ,667179385 ,646330029 ,625480674
	 ,625480674 ,604631318 ,604631318 ,604631318 ,604631318 ,625480674 ,625480674 ,646330029 ,646330029 ,646330029
	 ,646330029 ,667179385 ,667179385 ,667179385 ,688028741 ,688028741 ,708878097 ,708878097 ,708878097 ,708878097
	 ,688028741 ,688028741 ,667179385 ,646330029 ,646330029 ,646330029 ,646330029 ,646330029 ,646330029 ,646330029
	 ,667179385 ,667179385 ,688028741 ,688028741 ,688028741 ,688028741 ,688028741 ,688028741 ,688028741 ,667179385
	 ,667179385 ,667179385 ,667179385 ,667179385 ,688028741 ,688028741 ,688028741 ,688028741 ,688028741 ,688028741
	 ,688028741 ,667179385 ,667179385 ,667179385 ,646330029 ,667179385 ,667179385 ,667179385 ,667179385 ,667179385
	 ,667179385 ,667179385 ,667179385 ,646330029 ,646330029 ,646330029 ,646330029 ,646330029 ,667179385 ,667179385
	 ,688028741 ,708878097 ,708878097 ,729727453 ,750576808 ,771426164 ,771426164 ,792275520 ,792275520 ,792275520
	 ,792275520 ,813124876 ,813124876 ,813124876 ,813124876 ,833974232 ,854823587 ,875672943 ,896522299 ,938221011
	 ,959070366 ,1000769078 ,1021618434 ,1042467790 ,1042467790 ,1063317145 ,1042467790 ,1021618434 ,1000769078 ,959070366
	 ,917371655 ,875672943 ,833974232 ,813124876 ,792275520 ,792275520 ,792275520 ,792275520 ,792275520 ,792275520
	 ,771426164 ,750576808 ,729727453 ,708878097 ,667179385 ,646330029 ,646330029 ,646330029 ,646330029 ,667179385
	 ,667179385 ,688028741 ,688028741 ,667179385 ,667179385 ,646330029 ,646330029 ,625480674 ,625480674 ,646330029
	 ,646330029 ,667179385 ,667179385 ,667179385 ,667179385 ,667179385 ,667179385 ,646330029 ,646330029 ,646330029
	 ,646330029 ,646330029 ,646330029 ,646330029 ,625480674 ,604631318 ,583781962 ,562932606 ,542083250 ,542083250
	 ,542083250 ,542083250 ,542083250 ,542083250 ,562932606 ,583781962 ,625480674 ,729727453 ,875672943 ,1084166501
	 ,1355208127 ,1709647175 ,2084935580 ,-2147483648 ,-2147483648 ,-2147483648 ,-2147483648 ,-2147483648 ,-2147483648 ,-2147483648
	 ,-2147483648 ,-2147483648 ,-2147483648 ,1793044598 ,1334358771 ,938221011 ,604631318 ,375288404 ,250192269 ,208493558
	 ,250192269 ,333589692 ,437836471 ,542083250 ,646330029 ,729727453 ,771426164 ,792275520 ,771426164 ,771426164
	 ,750576808 ,729727453 ,729727453 ,729727453 ,729727453 ,750576808 ,771426164 ,771426164 ,771426164 ,771426164
	 ,750576808 ,729727453 ,729727453 ,729727453 ,729727453 ,729727453 ,750576808 ,771426164 ,792275520 ,813124876
	 ,813124876 ,813124876 ,813124876 ,813124876 ,813124876 ,833974232 ,833974232 ,854823587 ,875672943 ,896522299
	 ,917371655 ,938221011 ,938221011 ,959070366 ,959070366 ,959070366 ,938221011 ,938221011 ,938221011 ,938221011
	 ,938221011 ,959070366 ,959070366 ,959070366 ,979919722 ,979919722 ,979919722 ,979919722 ,1000769078 ,1000769078
	 ,1000769078 ,1000769078 ,1000769078 ,1021618434 ,1042467790 ,1063317145 ,1105015857 ,1125865213 ,1167563924 ,1188413280
	 ,1209262636 ,1230111992 ,1250961348 ,1250961348 ,1271810703 ,1292660059 ,1292660059 ,1313509415 ,1334358771 ,1355208127
	 ,1376057482 ,1396906838 ,1417756194 ,1438605550 ,1459454906 ,1480304261 ,1501153617 ,1542852329 ,1563701685 ,1605400396
	 ,1626249752 ,1647099108 ,1688797819 ,1709647175 ,1730496531 ,1751345887 ,1772195243 ,1793044598 ,1813893954 ,1834743310
	 ,1834743310 ,1855592666 ,1855592666 ,1855592666 ,1834743310 ,1813893954 ,1793044598 ,1751345887 ,1730496531 ,1730496531
	 ,1709647175 ,1709647175 ,1709647175 ,1709647175 ,1688797819 ,1647099108 ,1626249752 ,1563701685 ,1501153617 ,1438605550
	 ,1376057482 ,1313509415 ,1250961348 ,1209262636 ,1167563924 ,1146714569 ,1125865213 ,1105015857 ,1084166501 ,1063317145
	 ,1063317145 ,1042467790 ,1021618434 ,1000769078 ,1000769078 ,979919722 ,959070366 ,917371655 ,896522299 ,854823587
	 ,813124876 ,792275520 ,750576808 ,729727453 ,729727453 ,729727453 ,729727453 ,771426164 ,792275520 ,813124876
	 ,833974232 ,833974232 ,833974232 ,813124876 ,792275520 ,771426164 ,750576808 ,729727453 ,729727453 ,750576808
	 ,750576808 ,771426164 ,792275520 ,813124876 ,813124876 ,813124876 ,792275520 ,792275520 ,771426164 ,771426164
	 ,750576808 ,750576808 ,750576808 ,750576808 ,771426164 ,771426164 ,771426164 ,771426164 ,771426164 ,792275520
	 ,792275520 ,813124876 ,833974232 ,854823587 ,875672943 ,875672943 ,875672943 ,875672943 ,875672943 ,854823587
	 ,833974232 ,833974232 ,833974232 ,833974232 ,833974232 ,854823587 ,854823587 ,854823587 ,854823587 ,854823587
	 ,854823587 ,854823587 ,854823587 ,833974232 ,854823587 ,854823587 ,854823587 ,854823587 ,854823587 ,854823587
	 ,854823587 ,854823587 ,854823587 ,875672943 ,875672943 ,896522299 ,896522299 ,896522299 ,875672943 ,875672943
	 ,854823587 ,854823587 ,854823587 ,854823587 ,875672943 ,917371655 ,959070366 ,1000769078 ,1063317145 ,1105015857
	 ,1167563924 ,1209262636 ,1250961348 ,1271810703 ,1313509415 ,1334358771 ,1334358771 ,1355208127 ,1355208127 ,1355208127
	 ,1334358771 ,1334358771 ,1313509415 ,1313509415 ,1292660059 ,1292660059 ,1313509415 ,1313509415 ,1313509415 ,1313509415
	 ,1334358771 ,1313509415 ,1313509415 ,1313509415 ,1292660059 ,1292660059 ,1292660059 ,1292660059 ,1313509415 ,1313509415
	 ,1334358771 ,1355208127 ,1376057482 ,1396906838 ,1417756194 ,1417756194 ,1438605550 ,1417756194 ,1417756194 ,1396906838
	 ,1396906838 ,1376057482 ,1376057482 ,1376057482 ,1376057482 ,1376057482 ,1376057482 ,1376057482 ,1376057482 ,1376057482
	 ,1376057482 ,1376057482 ,1376057482 ,1355208127 ,1355208127 ,1355208127 ,1355208127 ,1355208127 ,1355208127 ,1334358771
	 ,1334358771 ,1313509415 ,1292660059 ,1271810703 ,1271810703 ,1271810703 ,1271810703 ,1271810703 ,1292660059 ,1313509415
	 ,1334358771 ,1355208127 ,1355208127 ,1355208127 ,1355208127 ,1355208127 ,1355208127 ,1334358771 ,1355208127 ,1355208127
	 ,1355208127 ,1376057482 ,1396906838 ,1396906838 ,1417756194 ,1417756194 ,1438605550 ,1438605550 ,1459454906 ,1480304261
	 ,1501153617 ,1522002973 ,1542852329 ,1542852329 ,1563701685 ,1563701685 ,1542852329 ,1542852329 ,1522002973 ,1501153617
	 ,1501153617 ,1480304261 ,1459454906 ,1438605550 ,1417756194 ,1376057482 ,1355208127 ,1313509415 ,1271810703 ,1230111992
	 ,1188413280 ,1167563924 ,1146714569 ,1146714569 ,1125865213 ,1125865213 ,1105015857 ,1084166501 ,1084166501 ,1063317145
	 ,1042467790 ,1021618434 ,1000769078 ,1000769078 ,1000769078 ,979919722 ,979919722 ,959070366 ,959070366 ,959070366
	 ,938221011 ,938221011 ,917371655 ,917371655 ,917371655 ,917371655 ,917371655 ,917371655 ,917371655 ,917371655
	 ,938221011 ,938221011 ,938221011 ,959070366 ,959070366 ,959070366 ,938221011 ,917371655 ,875672943 ,833974232
	 ,792275520 ,750576808 ,708878097 ,688028741 ,688028741 ,708878097 ,771426164 ,875672943 ,1021618434 ,1230111992
	 ,1501153617 ,1813893954 ,-2147483648 ,-2147483648 ,-2147483648 ,-2147483648 ,-2147483648 ,-2147483648 ,-2147483648 ,-2147483648
	 ,-2147483648 ,-2147483648 ,-2147483648 ,-2147483648 ,1772195243 ,1313509415 ,896522299 ,604631318 ,396137760 ,312740337
	 ,291890981 ,354439048 ,458685827 ,562932606 ,667179385 ,750576808 ,792275520 ,813124876 ,813124876 ,813124876
	 ,792275520 ,792275520 ,792275520 ,813124876 ,813124876 ,833974232 ,833974232 ,854823587 ,854823587 ,833974232
	 ,833974232 ,833974232 ,833974232 ,854823587 ,854823587 ,875672943 ,875672943 ,896522299 ,896522299 ,896522299
	 ,896522299 ,875672943 ,875672943 ,854823587 ,854823587 ,854823587 ,854823587 ,854823587 ,854823587 ,854823587
	 ,854823587 ,854823587 ,854823587 ,875672943 ,875672943 ,875672943 ,896522299 ,896522299 ,917371655 ,917371655
	 ,917371655 ,917371655 ,917371655 ,938221011 ,938221011 ,938221011 ,938221011 ,938221011 ,938221011 ,959070366
	 ,979919722 ,979919722 ,1000769078 ,1021618434 ,1042467790 ,1063317145 ,1063317145 ,1063317145 ,1063317145 ,1063317145
	 ,1063317145 ,1042467790 ,1042467790 ,1063317145 ,1084166501 ,1105015857 ,1146714569 ,1188413280 ,1230111992 ,1271810703
	 ,1292660059 ,1313509415 ,1334358771 ,1334358771 ,1334358771 ,1355208127 ,1355208127 ,1376057482 ,1396906838 ,1438605550
	 ,1480304261 ,1522002973 ,1563701685 ,1584551040 ,1626249752 ,1626249752 ,1647099108 ,1647099108 ,1667948464 ,1667948464
	 ,1667948464 ,1667948464 ,1667948464 ,1647099108 ,1647099108 ,1626249752 ,1584551040 ,1563701685 ,1542852329 ,1501153617
	 ,1501153617 ,1480304261 ,1459454906 ,1438605550 ,1417756194 ,1376057482 ,1355208127 ,1292660059 ,1250961348 ,1209262636
	 ,1167563924 ,1125865213 ,1105015857 ,1084166501 ,1063317145 ,1063317145 ,1042467790 ,1021618434 ,979919722 ,938221011
	 ,896522299 ,833974232 ,792275520 ,729727453 ,708878097 ,667179385 ,646330029 ,646330029 ,646330029 ,625480674
	 ,625480674 ,625480674 ,625480674 ,604631318 ,604631318 ,583781962 ,562932606 ,562932606 ,542083250 ,521233895
	 ,521233895 ,521233895 ,542083250 ,562932606 ,583781962 ,583781962 ,604631318 ,625480674 ,646330029 ,667179385
	 ,667179385 ,667179385 ,688028741 ,688028741 ,688028741 ,688028741 ,667179385 ,667179385 ,646330029 ,625480674
	 ,625480674 ,604631318 ,583781962 ,583781962 ,583781962 ,583781962 ,604631318 ,625480674 ,625480674 ,646330029
	 ,646330029 ,667179385 ,667179385 ,667179385 ,646330029 ,646330029 ,646330029 ,625480674 ,625480674 ,604631318
	 ,604631318 ,604631318 ,604631318 ,604631318 ,625480674 ,625480674 ,646330029 ,646330029 ,667179385 ,667179385
	 ,667179385 ,667179385 ,667179385 ,646330029 ,646330029 ,625480674 ,604631318 ,583781962 ,583781962 ,562932606
	 ,562932606 ,583781962 ,583781962 ,583781962 ,604631318 ,604631318 ,583781962 ,583781962 ,562932606 ,562932606
	 ,542083250 ,521233895 ,521233895 ,521233895 ,521233895 ,542083250 ,562932606 ,562932606 ,583781962 ,583781962
	 ,604631318 ,604631318 ,604631318 ,604631318 ,583781962 ,583781962 ,583781962 ,583781962 ,583781962 ,604631318
	 ,604631318 ,604631318 ,604631318 ,604631318 ,583781962 ,562932606 ,542083250 ,521233895 ,500384539 ,500384539
	 ,500384539 ,521233895 ,521233895 ,542083250 ,562932606 ,562932606 ,562932606 ,542083250 ,542083250 ,521233895
	 ,500384539 ,500384539 ,479535183 ,479535183 ,479535183 ,500384539 ,500384539 ,500384539 ,500384539 ,500384539
	 ,500384539 ,521233895 ,521233895 ,521233895 ,542083250 ,562932606 ,583781962 ,604631318 ,625480674 ,646330029
	 ,667179385 ,688028741 ,708878097 ,708878097 ,729727453 ,729727453 ,729727453 ,729727453 ,729727453 ,729727453
	 ,729727453 ,750576808 ,771426164 ,792275520 ,792275520 ,813124876 ,813124876 ,813124876 ,792275520 ,771426164
	 ,729727453 ,708878097 ,688028741 ,646330029 ,625480674 ,604631318 ,583781962 ,562932606 ,542083250 ,521233895
	 ,521233895 ,521233895 ,521233895 ,542083250 ,562932606 ,583781962 ,604631318 ,604631318 ,625480674 ,625480674
	 ,604631318 ,604631318 ,583781962 ,562932606 ,542083250 ,521233895 ,521233895 ,500384539 ,500384539 ,500384539
	 ,479535183 ,479535183 ,458685827 ,458685827 ,437836471 ,437836471 ,437836471 ,458685827 ,458685827 ,479535183
	 ,479535183 ,479535183 ,479535183 ,479535183 ,479535183 ,479535183 ,479535183 ,458685827 ,458685827 ,437836471
	 ,416987116 ,396137760 ,354439048 ,333589692 ,312740337 ,333589692 ,375288404 ,500384539 ,708878097 ,979919722
	 ,1313509415 ,1709647175 ,2105784935 ,-2147483648 ,-2147483648 ,-2147483648 ,-2147483648 ,-2147483648 ,-2147483648 ,-2147483648
	 ,-2147483648 ,-2147483648 ,1834743310 ,1417756194 ,1000769078 ,646330029 ,354439048 ,145945490 ,41698711 ,0
	 ,20849355 ,104246779 ,208493558 ,312740337 ,396137760 ,479535183 ,521233895 ,542083250 ,562932606 ,562932606
	 ,562932606 ,562932606 ,562932606 ,583781962 ,583781962 ,604631318 ,625480674 ,646330029 ,667179385 ,667179385
	 ,667179385 ,667179385 ,667179385 ,667179385 ,667179385 ,667179385 ,667179385 ,667179385 ,667179385 ,688028741
	 ,688028741 ,688028741 ,667179385 ,667179385 ,667179385 ,667179385 ,688028741 ,688028741 ,708878097 ,729727453
	 ,750576808 ,771426164 ,792275520 ,792275520 ,792275520 ,792275520 ,792275520 ,771426164 ,771426164 ,771426164
	 ,792275520 ,792275520 ,813124876 ,813124876 ,833974232 ,833974232 ,833974232 ,833974232 ,833974232 ,854823587
	 ,875672943 ,896522299 ,917371655 ,959070366 ,1000769078 ,1021618434 ,1042467790 ,1063317145 ,1084166501 ,1084166501
	 ,1084166501 ,1084166501 ,1084166501 ,1105015857 ,1125865213 ,1146714569 ,1167563924 ,1188413280 ,1209262636 ,1209262636
	 ,1230111992 ,1230111992 ,1250961348 ,1271810703 ,1313509415 ,1355208127 ,1396906838 ,1438605550 ,1480304261 ,1522002973
	 ,1542852329 ,1563701685 ,1584551040 ,1584551040 ,1605400396 ,1626249752 ,1626249752 ,1647099108 ,1647099108 ,1667948464
	 ,1667948464 ,1667948464 ,1647099108 ,1647099108 ,1647099108 ,1647099108 ,1647099108 ,1647099108 ,1626249752 ,1605400396
	 ,1584551040 ,1542852329 ,1501153617 ,1438605550 ,1376057482 ,1313509415 ,1271810703 ,1230111992 ,1209262636 ,1188413280
	 ,1167563924 ,1125865213 ,1105015857 ,1063317145 ,1021618434 ,959070366 ,917371655 ,875672943 ,833974232 ,792275520
	 ,771426164 ,750576808 ,729727453 ,688028741 ,667179385 ,646330029 ,625480674 ,625480674 ,625480674 ,625480674
	 ,625480674 ,625480674 ,646330029 ,625480674 ,625480674 ,583781962 ,562932606 ,521233895 ,500384539 ,479535183
	 ,479535183 ,479535183 ,500384539 ,521233895 ,562932606 ,583781962 ,625480674 ,646330029 ,667179385 ,688028741
	 ,688028741 ,688028741 ,667179385 ,667179385 ,646330029 ,646330029 ,646330029 ,625480674 ,625480674 ,646330029
	 ,646330029 ,646330029 ,667179385 ,667179385 ,688028741 ,688028741 ,688028741 ,667179385 ,667179385 ,646330029
	 ,625480674 ,625480674 ,604631318 ,604631318 ,604631318 ,604631318 ,625480674 ,625480674 ,625480674 ,625480674
	 ,625480674 ,625480674 ,625480674 ,625480674 ,646330029 ,667179385 ,688028741 ,708878097 ,729727453 ,729727453
	 ,750576808 ,750576808 ,729727453 ,708878097 ,708878097 ,688028741 ,667179385 ,667179385 ,667179385 ,688028741
	 ,688028741 ,688028741 ,688028741 ,667179385 ,667179385 ,646330029 ,625480674 ,604631318 ,604631318 ,604631318
	 ,625480674 ,646330029 ,667179385 ,688028741 ,688028741 ,708878097 ,688028741 ,688028741 ,667179385 ,667179385
	 ,667179385 ,667179385 ,667179385 ,667179385 ,688028741 ,688028741 ,688028741 ,688028741 ,688028741 ,688028741
	 ,688028741 ,688028741 ,688028741 ,708878097 ,708878097 ,708878097 ,708878097 ,708878097 ,688028741 ,667179385
	 ,667179385 ,646330029 ,646330029 ,646330029 ,646330029 ,646330029 ,646330029 ,667179385 ,667179385 ,688028741
	 ,708878097 ,729727453 ,729727453 ,750576808 ,750576808 ,750576808 ,750576808 ,750576808 ,729727453 ,729727453
	 ,729727453 ,729727453 ,750576808 ,771426164 ,792275520 ,833974232 ,854823587 ,875672943 ,896522299 ,896522299
	 ,875672943 ,875672943 ,875672943 ,875672943 ,875672943 ,875672943 ,875672943 ,854823587 ,833974232 ,792275520
	 ,750576808 ,708878097 ,667179385 ,625480674 ,604631318 ,583781962 ,583781962 ,583781962 ,604631318 ,604631318
	 ,625480674 ,625480674 ,646330029 ,646330029 ,646330029 ,646330029 ,646330029 ,646330029 ,646330029 ,646330029
	 ,625480674 ,625480674 ,604631318 ,604631318 ,604631318 ,604631318 ,646330029 ,667179385 ,729727453 ,771426164
	 ,813124876 ,854823587 ,896522299 ,938221011 ,959070366 ,979919722 ,979919722 ,1000769078 ,1000769078 ,1021618434
	 ,1021618434 ,1042467790 ,1042467790 ,1042467790 ,1063317145 ,1063317145 ,1084166501 ,1084166501 ,1084166501 ,1084166501
	 ,1084166501 ,1084166501 ,1084166501 ,1125865213 ,1188413280 ,1292660059 ,1459454906 ,1667948464 ,1918140733 ,-2147483648
	 ,-2147483648 ,-2147483648 ,-2147483648 ,-2147483648 ,-2147483648 ,-2147483648 ,-2147483648 ,-2147483648 ,-2147483648 ,-2147483648
	 ,-2147483648 ,2064086224 ,1688797819 ,1334358771 ,1063317145 ,854823587 ,750576808 ,708878097 ,750576808 ,854823587
	 ,979919722 ,1105015857 ,1209262636 ,1292660059 ,1334358771 ,1355208127 ,1334358771 ,1334358771 ,1313509415 ,1292660059
	 ,1292660059 ,1292660059 ,1292660059 ,1292660059 ,1292660059 ,1292660059 ,1292660059 ,1292660059 ,1292660059 ,1292660059
	 ,1292660059 ,1313509415 ,1334358771 ,1355208127 ,1376057482 ,1376057482 ,1376057482 ,1376057482 ,1355208127 ,1355208127
	 ,1334358771 ,1313509415 ,1313509415 ,1334358771 ,1334358771 ,1355208127 ,1376057482 ,1396906838 ,1396906838 ,1396906838
	 ,1396906838 ,1396906838 ,1396906838 ,1396906838 ,1396906838 ,1417756194 ,1417756194 ,1438605550 ,1438605550 ,1438605550
	 ,1438605550 ,1438605550 ,1438605550 ,1438605550 ,1417756194 ,1438605550 ,1438605550 ,1459454906 ,1480304261 ,1501153617
	 ,1522002973 ,1542852329 ,1542852329 ,1542852329 ,1542852329 ,1542852329 ,1542852329 ,1542852329 ,1542852329 ,1563701685
	 ,1563701685 ,1584551040 ,1584551040 ,1605400396 ,1605400396 ,1605400396 ,1605400396 ,1626249752 ,1647099108 ,1667948464
	 ,1688797819 ,1709647175 ,1751345887 ,1772195243 ,1793044598 ,1813893954 ,1834743310 ,1834743310 ,1855592666 ,1876442022
	 ,1897291377 ,1918140733 ,1959839445 ,1980688801 ,1980688801 ,2001538156 ,2001538156 ,1980688801 ,1959839445 ,1938990089
	 ,1918140733 ,1897291377 ,1876442022 ,1855592666 ,1834743310 ,1793044598 ,1772195243 ,1730496531 ,1709647175 ,1667948464
	 ,1647099108 ,1647099108 ,1626249752 ,1626249752 ,1605400396 ,1584551040 ,1563701685 ,1522002973 ,1480304261 ,1417756194
	 ,1376057482 ,1313509415 ,1271810703 ,1230111992 ,1209262636 ,1188413280 ,1167563924 ,1167563924 ,1167563924 ,1146714569
	 ,1146714569 ,1125865213 ,1125865213 ,1105015857 ,1105015857 ,1084166501 ,1063317145 ,1042467790 ,1021618434 ,979919722
	 ,959070366 ,917371655 ,896522299 ,875672943 ,854823587 ,854823587 ,854823587 ,854823587 ,875672943 ,875672943
	 ,896522299 ,875672943 ,875672943 ,875672943 ,854823587 ,833974232 ,833974232 ,833974232 ,833974232 ,854823587
	 ,875672943 ,896522299 ,917371655 ,917371655 ,917371655 ,917371655 ,896522299 ,854823587 ,833974232 ,813124876
	 ,792275520 ,792275520 ,813124876 ,813124876 ,854823587 ,875672943 ,896522299 ,896522299 ,917371655 ,917371655
	 ,896522299 ,896522299 ,896522299 ,896522299 ,896522299 ,896522299 ,917371655 ,917371655 ,917371655 ,917371655
	 ,896522299 ,875672943 ,854823587 ,854823587 ,833974232 ,833974232 ,833974232 ,833974232 ,854823587 ,854823587
	 ,875672943 ,875672943 ,875672943 ,854823587 ,854823587 ,833974232 ,833974232 ,833974232 ,833974232 ,854823587
	 ,854823587 ,854823587 ,854823587 ,854823587 ,833974232 ,813124876 ,792275520 ,771426164 ,771426164 ,771426164
	 ,771426164 ,792275520 ,792275520 ,813124876 ,833974232 ,833974232 ,813124876 ,813124876 ,792275520 ,771426164
	 ,771426164 ,771426164 ,792275520 ,813124876 ,833974232 ,854823587 ,875672943 ,875672943 ,854823587 ,854823587
	 ,813124876 ,792275520 ,771426164 ,750576808 ,729727453 ,729727453 ,750576808 ,771426164 ,792275520 ,813124876
	 ,833974232 ,833974232 ,854823587 ,833974232 ,833974232 ,833974232 ,813124876 ,813124876 ,833974232 ,833974232
	 ,854823587 ,896522299 ,917371655 ,959070366 ,979919722 ,1000769078 ,1021618434 ,1021618434 ,1021618434 ,1000769078
	 ,979919722 ,959070366 ,938221011 ,917371655 ,896522299 ,896522299 ,896522299 ,875672943 ,875672943 ,875672943
	 ,875672943 ,875672943 ,854823587 ,833974232 ,833974232 ,813124876 ,792275520 ,792275520 ,771426164 ,750576808
	 ,729727453 ,729727453 ,708878097 ,708878097 ,688028741 ,688028741 ,688028741 ,688028741 ,688028741 ,688028741
	 ,667179385 ,646330029 ,625480674 ,625480674 ,604631318 ,604631318 ,604631318 ,625480674 ,625480674 ,646330029
	 ,667179385 ,667179385 ,667179385 ,667179385 ,667179385 ,667179385 ,688028741 ,688028741 ,708878097 ,729727453
	 ,729727453 ,750576808 ,729727453 ,708878097 ,688028741 ,646330029 ,604631318 ,562932606 ,521233895 ,500384539
	 ,500384539 ,521233895 ,562932606 ,625480674 ,729727453 ,854823587 ,1042467790 ,1250961348 ,1522002973 ,1813893954
	 ,2126634291 ,-2147483648 ,-2147483648 ,-2147483648 ,-2147483648 ,-2147483648 ,-2147483648 ,-2147483648 ,-2147483648 ,2001538156
	 ,1605400396 ,1230111992 ,875672943 ,604631318 ,396137760 ,271041625 ,208493558 ,229342913 ,271041625 ,354439048
	 ,437836471 ,500384539 ,562932606 ,604631318 ,646330029 ,646330029 ,667179385 ,688028741 ,708878097 ,729727453
	 ,750576808 ,792275520 ,813124876 ,813124876 ,833974232 ,833974232 ,833974232 ,813124876 ,792275520 ,792275520
	 ,771426164 ,750576808 ,750576808 ,729727453 ,708878097 ,708878097 ,688028741 ,688028741 ,708878097 ,708878097
	 ,729727453 ,771426164 ,813124876 ,833974232 ,875672943 ,896522299 ,896522299 ,917371655 ,917371655 ,896522299
	 ,896522299 ,875672943 ,875672943 ,875672943 ,875672943 ,875672943 ,875672943 ,875672943 ,875672943 ,875672943
	 ,875672943 ,875672943 ,896522299 ,896522299 ,917371655 ,938221011 ,959070366 ,1000769078 ,1021618434 ,1042467790
	 ,1063317145 ,1084166501 ,1105015857 ,1105015857 ,1105015857 ,1105015857 ,1105015857 ,1105015857 ,1105015857 ,1125865213
	 ,1125865213 ,1125865213 ,1146714569 ,1146714569 ,1188413280 ,1209262636 ,1250961348 ,1292660059 ,1334358771 ,1355208127
	 ,1396906838 ,1417756194 ,1438605550 ,1438605550 ,1459454906 ,1459454906 ,1459454906 ,1459454906 ,1459454906 ,1480304261
	 ,1501153617 ,1542852329 ,1563701685 ,1584551040 ,1605400396 ,1626249752 ,1647099108 ,1647099108 ,1647099108 ,1626249752
	 ,1626249752 ,1605400396 ,1563701685 ,1542852329 ,1522002973 ,1501153617 ,1480304261 ,1459454906 ,1459454906 ,1438605550
	 ,1438605550 ,1417756194 ,1396906838 ,1355208127 ,1313509415 ,1250961348 ,1188413280 ,1125865213 ,1063317145 ,1000769078
	 ,959070366 ,917371655 ,896522299 ,875672943 ,875672943 ,854823587 ,854823587 ,833974232 ,813124876 ,792275520
	 ,771426164 ,771426164 ,750576808 ,750576808 ,750576808 ,750576808 ,750576808 ,771426164 ,771426164 ,792275520
	 ,792275520 ,792275520 ,792275520 ,792275520 ,771426164 ,771426164 ,771426164 ,771426164 ,771426164 ,771426164
	 ,771426164 ,771426164 ,750576808 ,729727453 ,729727453 ,708878097 ,688028741 ,688028741 ,688028741 ,708878097
	 ,708878097 ,729727453 ,750576808 ,729727453 ,729727453 ,708878097 ,688028741 ,646330029 ,625480674 ,625480674
	 ,646330029 ,667179385 ,688028741 ,729727453 ,750576808 ,771426164 ,771426164 ,750576808 ,729727453 ,708878097
	 ,688028741 ,667179385 ,667179385 ,688028741 ,708878097 ,729727453 ,750576808 ,771426164 ,771426164 ,771426164
	 ,771426164 ,750576808 ,750576808 ,729727453 ,729727453 ,750576808 ,750576808 ,750576808 ,750576808 ,771426164
	 ,750576808 ,750576808 ,750576808 ,750576808 ,729727453 ,729727453 ,729727453 ,708878097 ,708878097 ,688028741
	 ,667179385 ,646330029 ,625480674 ,625480674 ,604631318 ,604631318 ,625480674 ,646330029 ,667179385 ,688028741
	 ,708878097 ,729727453 ,729727453 ,729727453 ,708878097 ,688028741 ,667179385 ,646330029 ,646330029 ,625480674
	 ,625480674 ,625480674 ,646330029 ,646330029 ,667179385 ,667179385 ,667179385 ,667179385 ,667179385 ,667179385
	 ,667179385 ,667179385 ,667179385 ,667179385 ,688028741 ,688028741 ,708878097 ,708878097 ,729727453 ,729727453
	 ,729727453 ,750576808 ,750576808 ,750576808 ,771426164 ,792275520 ,792275520 ,813124876 ,813124876 ,813124876
	 ,813124876 ,813124876 ,792275520 ,792275520 ,792275520 ,792275520 ,813124876 ,813124876 ,833974232 ,833974232
	 ,854823587 ,854823587 ,854823587 ,854823587 ,854823587 ,854823587 ,854823587 ,833974232 ,833974232 ,833974232
	 ,813124876 ,792275520 ,771426164 ,750576808 ,729727453 ,688028741 ,646330029 ,604631318 ,583781962 ,562932606
	 ,542083250 ,521233895 ,521233895 ,542083250 ,542083250 ,562932606 ,562932606 ,583781962 ,562932606 ,562932606
	 ,542083250 ,521233895 ,500384539 ,479535183 ,479535183 ,458685827 ,458685827 ,479535183 ,479535183 ,479535183
	 ,500384539 ,500384539 ,500384539 ,500384539 ,521233895 ,521233895 ,521233895 ,521233895 ,521233895 ,521233895
	 ,521233895 ,521233895 ,521233895 ,542083250 ,562932606 ,562932606 ,583781962 ,583781962 ,562932606 ,542083250
	 ,500384539 ,437836471 ,396137760 ,354439048 ,333589692 ,354439048 ,437836471 ,562932606 ,750576808 ,1000769078
	 ,1292660059 ,1626249752 ,1980688801 ,-2147483648 ,-2147483648 ,-2147483648 ,-2147483648 ,-2147483648 ,-2147483648 ,-2147483648
	 ,-2147483648 ,-2147483648 ,2084935580 ,1605400396 ,1125865213 ,708878097 ,396137760 ,166794846 ,62548067 ,62548067
	 ,125096134 ,229342913 ,354439048 ,458685827 ,542083250 ,583781962 ,604631318 ,604631318 ,604631318 ,604631318
	 ,625480674 ,646330029 ,667179385 ,688028741 ,688028741 ,688028741 ,667179385 ,646330029 ,646330029 ,625480674
	 ,625480674 ,625480674 ,646330029 ,646330029 ,667179385 ,646330029 ,646330029 ,625480674 ,583781962 ,562932606
	 ,562932606 ,562932606 ,562932606 ,604631318 ,625480674 ,667179385 ,688028741 ,729727453 ,750576808 ,750576808
	 ,771426164 ,771426164 ,792275520 ,792275520 ,813124876 ,813124876 ,813124876 ,833974232 ,813124876 ,813124876
	 ,813124876 ,813124876 ,813124876 ,813124876 ,813124876 ,833974232 ,854823587 ,854823587 ,875672943 ,896522299
	 ,896522299 ,896522299 ,896522299 ,917371655 ,917371655 ,917371655 ,938221011 ,938221011 ,959070366 ,979919722
	 ,1000769078 ,1021618434 ,1042467790 ,1063317145 ,1084166501 ,1125865213 ,1167563924 ,1188413280 ,1250961348 ,1292660059
	 ,1334358771 ,1355208127 ,1396906838 ,1396906838 ,1417756194 ,1417756194 ,1417756194 ,1417756194 ,1417756194 ,1438605550
	 ,1438605550 ,1480304261 ,1501153617 ,1542852329 ,1563701685 ,1584551040 ,1605400396 ,1626249752 ,1626249752 ,1605400396
	 ,1605400396 ,1584551040 ,1584551040 ,1584551040 ,1584551040 ,1605400396 ,1626249752 ,1647099108 ,1667948464 ,1688797819
	 ,1709647175 ,1709647175 ,1709647175 ,1709647175 ,1688797819 ,1667948464 ,1626249752 ,1605400396 ,1584551040 ,1563701685
	 ,1522002973 ,1501153617 ,1480304261 ,1459454906 ,1459454906 ,1438605550 ,1438605550 ,1417756194 ,1417756194 ,1396906838
	 ,1376057482 ,1355208127 ,1334358771 ,1313509415 ,1271810703 ,1250961348 ,1250961348 ,1230111992 ,1230111992 ,1230111992
	 ,1230111992 ,1230111992 ,1230111992 ,1230111992 ,1209262636 ,1209262636 ,1188413280 ,1188413280 ,1188413280 ,1188413280
	 ,1188413280 ,1188413280 ,1188413280 ,1167563924 ,1167563924 ,1146714569 ,1125865213 ,1125865213 ,1105015857 ,1105015857
	 ,1105015857 ,1105015857 ,1125865213 ,1125865213 ,1146714569 ,1146714569 ,1167563924 ,1167563924 ,1146714569 ,1146714569
	 ,1146714569 ,1125865213 ,1146714569 ,1146714569 ,1167563924 ,1167563924 ,1188413280 ,1188413280 ,1209262636 ,1209262636
	 ,1209262636 ,1188413280 ,1188413280 ,1188413280 ,1209262636 ,1209262636 ,1230111992 ,1230111992 ,1230111992 ,1250961348
	 ,1250961348 ,1250961348 ,1250961348 ,1250961348 ,1230111992 ,1230111992 ,1230111992 ,1230111992 ,1209262636 ,1209262636
	 ,1188413280 ,1167563924 ,1167563924 ,1146714569 ,1146714569 ,1146714569 ,1125865213 ,1125865213 ,1125865213 ,1125865213
	 ,1105015857 ,1105015857 ,1084166501 ,1084166501 ,1084166501 ,1084166501 ,1084166501 ,1084166501 ,1084166501 ,1063317145
	 ,1042467790 ,1021618434 ,1000769078 ,959070366 ,938221011 ,938221011 ,938221011 ,938221011 ,938221011 ,959070366
	 ,979919722 ,979919722 ,979919722 ,979919722 ,979919722 ,959070366 ,959070366 ,959070366 ,938221011 ,938221011
	 ,917371655 ,917371655 ,917371655 ,896522299 ,896522299 ,875672943 ,875672943 ,854823587 ,854823587 ,854823587
	 ,833974232 ,833974232 ,833974232 ,833974232 ,833974232 ,833974232 ,833974232 ,833974232 ,854823587 ,875672943
	 ,875672943 ,896522299 ,917371655 ,917371655 ,938221011 ,938221011 ,917371655 ,917371655 ,896522299 ,875672943
	 ,854823587 ,833974232 ,813124876 ,792275520 ,792275520 ,792275520 ,813124876 ,833974232 ,854823587 ,875672943
	 ,896522299 ,917371655 ,938221011 ,959070366 ,979919722 ,1000769078 ,1000769078 ,1021618434 ,1021618434 ,1021618434
	 ,1000769078 ,979919722 ,938221011 ,896522299 ,833974232 ,771426164 ,729727453 ,667179385 ,646330029 ,604631318
	 ,604631318 ,583781962 ,604631318 ,604631318 ,625480674 ,625480674 ,625480674 ,625480674 ,625480674 ,625480674
	 ,625480674 ,625480674 ,625480674 ,625480674 ,625480674 ,604631318 ,604631318 ,604631318 ,583781962 ,583781962
	 ,562932606 ,562932606 ,562932606 ,562932606 ,562932606 ,562932606 ,583781962 ,583781962 ,583781962 ,583781962
	 ,583781962 ,583781962 ,583781962 ,583781962 ,562932606 ,562932606 ,542083250 ,542083250 ,521233895 ,521233895
	 ,500384539 ,479535183 ,458685827 ,437836471 ,416987116 ,416987116 ,437836471 ,500384539 ,604631318 ,792275520
	 ,1021618434 ,1313509415 ,1667948464 ,2064086224 ,-2147483648 ,-2147483648 ,-2147483648 ,-2147483648 ,-2147483648 ,-2147483648
	 ,-2147483648 ,-2147483648 ,-2147483648 ,-2147483648 ,1876442022 ,1396906838 ,938221011 ,583781962 ,333589692 ,187644202
	 ,125096134 ,166794846 ,250192269 ,354439048 ,479535183 ,562932606 ,625480674 ,667179385 ,688028741 ,708878097
	 ,708878097 ,708878097 ,729727453 ,750576808 ,771426164 ,771426164 ,792275520 ,792275520 ,771426164 ,750576808
	 ,729727453 ,729727453 ,729727453 ,729727453 ,729727453 ,750576808 ,771426164 ,792275520 ,792275520 ,792275520
	 ,792275520 ,792275520 ,792275520 ,771426164 ,771426164 ,750576808 ,750576808 ,771426164 ,771426164 ,771426164
	 ,792275520 ,813124876 ,813124876 ,833974232 ,854823587 ,854823587 ,875672943 ,875672943 ,896522299 ,896522299
	 ,875672943 ,875672943 ,854823587 ,854823587 ,854823587 ,854823587 ,875672943 ,896522299 ,938221011 ,979919722
	 ,1000769078 ,1042467790 ,1063317145 ,1063317145 ,1063317145 ,1063317145 ,1063317145 ,1063317145 ,1063317145 ,1084166501
	 ,1105015857 ,1125865213 ,1146714569 ,1167563924 ,1188413280 ,1209262636 ,1230111992 ,1250961348 ,1292660059 ,1313509415
	 ,1355208127 ,1396906838 ,1438605550 ,1480304261 ,1501153617 ,1522002973 ,1522002973 ,1522002973 ,1522002973 ,1522002973
	 ,1522002973 ,1522002973 ,1542852329 ,1563701685 ,1605400396 ,1626249752 ,1647099108 ,1647099108 ,1667948464 ,1647099108
	 ,1647099108 ,1647099108 ,1626249752 ,1626249752 ,1626249752 ,1647099108 ,1647099108 ,1647099108 ,1667948464 ,1647099108
	 ,1626249752 ,1605400396 ,1563701685 ,1522002973 ,1459454906 ,1417756194 ,1376057482 ,1355208127 ,1313509415 ,1292660059
	 ,1292660059 ,1271810703 ,1250961348 ,1230111992 ,1209262636 ,1167563924 ,1125865213 ,1084166501 ,1063317145 ,1021618434
	 ,1000769078 ,979919722 ,959070366 ,938221011 ,917371655 ,896522299 ,875672943 ,854823587 ,833974232 ,833974232
	 ,833974232 ,833974232 ,833974232 ,854823587 ,854823587 ,854823587 ,854823587 ,833974232 ,833974232 ,813124876
	 ,792275520 ,792275520 ,771426164 ,771426164 ,771426164 ,771426164 ,750576808 ,750576808 ,750576808 ,729727453
	 ,729727453 ,708878097 ,708878097 ,708878097 ,708878097 ,708878097 ,708878097 ,688028741 ,688028741 ,688028741
	 ,688028741 ,688028741 ,688028741 ,688028741 ,708878097 ,729727453 ,750576808 ,771426164 ,792275520 ,813124876
	 ,813124876 ,833974232 ,833974232 ,833974232 ,833974232 ,833974232 ,833974232 ,813124876 ,813124876 ,792275520
	 ,771426164 ,750576808 ,750576808 ,729727453 ,708878097 ,708878097 ,708878097 ,708878097 ,729727453 ,750576808
	 ,750576808 ,771426164 ,792275520 ,813124876 ,813124876 ,813124876 ,813124876 ,813124876 ,792275520 ,771426164
	 ,771426164 ,750576808 ,750576808 ,750576808 ,750576808 ,750576808 ,771426164 ,771426164 ,771426164 ,750576808
	 ,750576808 ,729727453 ,708878097 ,688028741 ,688028741 ,667179385 ,667179385 ,667179385 ,688028741 ,708878097
	 ,729727453 ,750576808 ,750576808 ,771426164 ,771426164 ,771426164 ,750576808 ,729727453 ,729727453 ,708878097
	 ,688028741 ,667179385 ,667179385 ,667179385 ,667179385 ,688028741 ,688028741 ,708878097 ,708878097 ,708878097
	 ,708878097 ,729727453 ,729727453 ,729727453 ,729727453 ,750576808 ,750576808 ,750576808 ,771426164 ,771426164
	 ,771426164 ,771426164 ,771426164 ,750576808 ,750576808 ,750576808 ,750576808 ,750576808 ,750576808 ,750576808
	 ,771426164 ,771426164 ,771426164 ,771426164 ,771426164 ,750576808 ,750576808 ,750576808 ,750576808 ,750576808
	 ,750576808 ,750576808 ,771426164 ,771426164 ,792275520 ,792275520 ,813124876 ,813124876 ,813124876 ,813124876
	 ,813124876 ,813124876 ,833974232 ,833974232 ,854823587 ,875672943 ,896522299 ,917371655 ,938221011 ,959070366
	 ,979919722 ,979919722 ,979919722 ,979919722 ,979919722 ,979919722 ,959070366 ,959070366 ,938221011 ,917371655
	 ,917371655 ,896522299 ,875672943 ,854823587 ,833974232 ,792275520 ,771426164 ,750576808 ,729727453 ,729727453
	 ,729727453 ,729727453 ,729727453 ,729727453 ,729727453 ,729727453 ,708878097 ,708878097 ,708878097 ,688028741
	 ,688028741 ,688028741 ,667179385 ,667179385 ,667179385 ,667179385 ,667179385 ,667179385 ,667179385 ,646330029
	 ,667179385 ,667179385 ,667179385 ,688028741 ,688028741 ,688028741 ,688028741 ,667179385 ,646330029 ,625480674
	 ,604631318 ,583781962 ,562932606 ,562932606 ,562932606 ,583781962 ,604631318 ,625480674 ,625480674 ,604631318
	 ,583781962 ,542083250 ,500384539 ,458685827 ,479535183 ,521233895 ,604631318 ,771426164 ,979919722 ,1250961348
	 ,1563701685 ,1918140733 ,-2147483648 ,-2147483648 ,-2147483648 ,-2147483648 ,-2147483648 ,-2147483648 ,-2147483648 ,-2147483648
	 ,-2147483648 ,-2147483648 ,-2147483648 ,1709647175 ,1250961348 ,833974232 ,521233895 ,312740337 ,208493558 ,187644202
	 ,250192269 ,354439048 ,479535183 ,583781962 ,646330029 ,688028741 ,708878097 ,688028741 ,688028741 ,688028741
	 ,688028741 ,708878097 ,750576808 ,771426164 ,813124876 ,813124876 ,813124876 ,792275520 ,771426164 ,750576808
	 ,729727453 ,708878097 ,729727453 ,729727453 ,771426164 ,792275520 ,813124876 ,833974232 ,854823587 ,854823587
	 ,854823587 ,854823587 ,854823587 ,854823587 ,854823587 ,854823587 ,854823587 ,854823587 ,854823587 ,875672943
	 ,875672943 ,875672943 ,896522299 ,896522299 ,917371655 ,917371655 ,938221011 ,938221011 ,938221011 ,917371655
	 ,917371655 ,917371655 ,938221011 ,938221011 ,979919722 ,1000769078 ,1042467790 ,1063317145 ,1084166501 ,1105015857
	 ,1105015857 ,1105015857 ,1084166501 ,1084166501 ,1063317145 ,1084166501 ,1105015857 ,1125865213 ,1167563924 ,1188413280
	 ,1230111992 ,1250961348 ,1250961348 ,1271810703 ,1250961348 ,1250961348 ,1250961348 ,1271810703 ,1292660059 ,1313509415
	 ,1355208127 ,1396906838 ,1417756194 ,1459454906 ,1480304261 ,1501153617 ,1522002973 ,1522002973 ,1542852329 ,1542852329
	 ,1563701685 ,1584551040 ,1605400396 ,1626249752 ,1647099108 ,1667948464 ,1709647175 ,1730496531 ,1751345887 ,1772195243
	 ,1793044598 ,1793044598 ,1772195243 ,1751345887 ,1730496531 ,1688797819 ,1667948464 ,1626249752 ,1605400396 ,1584551040
	 ,1563701685 ,1542852329 ,1522002973 ,1480304261 ,1438605550 ,1376057482 ,1313509415 ,1250961348 ,1209262636 ,1167563924
	 ,1146714569 ,1125865213 ,1125865213 ,1125865213 ,1125865213 ,1105015857 ,1084166501 ,1063317145 ,1021618434 ,959070366
	 ,917371655 ,875672943 ,833974232 ,833974232 ,813124876 ,813124876 ,813124876 ,813124876 ,813124876 ,813124876
	 ,792275520 ,771426164 ,771426164 ,750576808 ,729727453 ,708878097 ,688028741 ,667179385 ,667179385 ,646330029
	 ,625480674 ,625480674 ,625480674 ,646330029 ,646330029 ,667179385 ,688028741 ,708878097 ,729727453 ,729727453
	 ,729727453 ,729727453 ,729727453 ,708878097 ,708878097 ,708878097 ,708878097 ,708878097 ,729727453 ,729727453
	 ,729727453 ,729727453 ,708878097 ,708878097 ,708878097 ,688028741 ,688028741 ,708878097 ,708878097 ,708878097
	 ,729727453 ,729727453 ,729727453 ,729727453 ,729727453 ,729727453 ,729727453 ,729727453 ,729727453 ,729727453
	 ,750576808 ,750576808 ,771426164 ,771426164 ,771426164 ,792275520 ,771426164 ,771426164 ,771426164 ,750576808
	 ,750576808 ,750576808 ,750576808 ,750576808 ,771426164 ,771426164 ,792275520 ,792275520 ,792275520 ,792275520
	 ,771426164 ,771426164 ,750576808 ,729727453 ,708878097 ,708878097 ,708878097 ,708878097 ,729727453 ,750576808
	 ,771426164 ,792275520 ,813124876 ,813124876 ,792275520 ,771426164 ,750576808 ,729727453 ,688028741 ,688028741
	 ,667179385 ,688028741 ,708878097 ,729727453 ,792275520 ,833974232 ,896522299 ,938221011 ,979919722 ,1021618434
	 ,1063317145 ,1084166501 ,1105015857 ,1105015857 ,1125865213 ,1125865213 ,1125865213 ,1146714569 ,1146714569 ,1146714569
	 ,1167563924 ,1167563924 ,1167563924 ,1146714569 ,1146714569 ,1146714569 ,1146714569 ,1146714569 ,1146714569 ,1146714569
	 ,1146714569 ,1167563924 ,1188413280 ,1188413280 ,1209262636 ,1209262636 ,1209262636 ,1209262636 ,1188413280 ,1188413280
	 ,1167563924 ,1146714569 ,1146714569 ,1125865213 ,1125865213 ,1125865213 ,1146714569 ,1167563924 ,1188413280 ,1209262636
	 ,1250961348 ,1271810703 ,1292660059 ,1292660059 ,1292660059 ,1292660059 ,1292660059 ,1271810703 ,1271810703 ,1271810703
	 ,1271810703 ,1271810703 ,1292660059 ,1313509415 ,1334358771 ,1355208127 ,1376057482 ,1376057482 ,1396906838 ,1396906838
	 ,1396906838 ,1396906838 ,1396906838 ,1396906838 ,1396906838 ,1376057482 ,1376057482 ,1355208127 ,1334358771 ,1313509415
	 ,1271810703 ,1230111992 ,1188413280 ,1146714569 ,1105015857 ,1063317145 ,1042467790 ,1042467790 ,1021618434 ,1021618434
	 ,1042467790 ,1042467790 ,1063317145 ,1063317145 ,1063317145 ,1063317145 ,1063317145 ,1042467790 ,1042467790 ,1042467790
	 ,1021618434 ,1000769078 ,979919722 ,959070366 ,938221011 ,917371655 ,896522299 ,896522299 ,875672943 ,875672943
	 ,854823587 ,854823587 ,854823587 ,875672943 ,875672943 ,875672943 ,875672943 ,896522299 ,896522299 ,896522299
	 ,896522299 ,896522299 ,896522299 ,896522299 ,896522299 ,896522299 ,875672943 ,854823587 ,813124876 ,792275520
	 ,750576808 ,729727453 ,750576808 ,792275520 ,896522299 ,1042467790 ,1271810703 ,1542852329 ,1876442022 ,-2147483648
	 ,-2147483648 ,-2147483648 ,-2147483648 ,-2147483648 ,-2147483648 ,-2147483648 ,-2147483648 ,-2147483648 ,-2147483648 ,-2147483648
	 ,2064086224 ,1584551040 ,1167563924 ,813124876 ,542083250 ,396137760 ,333589692 ,354439048 ,437836471 ,521233895
	 ,625480674 ,708878097 ,750576808 ,792275520 ,792275520 ,792275520 ,792275520 ,792275520 ,813124876 ,833974232
	 ,854823587 ,875672943 ,875672943 ,875672943 ,854823587 ,833974232 ,813124876 ,792275520 ,792275520 ,792275520
	 ,813124876 ,833974232 ,854823587 ,875672943 ,875672943 ,875672943 ,854823587 ,833974232 ,813124876 ,813124876
	 ,813124876 ,813124876 ,833974232 ,875672943 ,896522299 ,938221011 ,959070366 ,959070366 ,959070366 ,959070366
	 ,959070366 ,938221011 ,938221011 ,938221011 ,938221011 ,938221011 ,959070366 ,959070366 ,979919722 ,1000769078
	 ,1000769078 ,1000769078 ,1000769078 ,979919722 ,979919722 ,959070366 ,959070366 ,959070366 ,959070366 ,959070366
	 ,979919722 ,1000769078 ,1000769078 ,1000769078 ,1021618434 ,1021618434 ,1021618434 ,1042467790 ,1063317145 ,1084166501
	 ,1125865213 ,1167563924 ,1209262636 ,1250961348 ,1292660059 ,1334358771 ,1355208127 ,1396906838 ,1417756194 ,1438605550
	 ,1459454906 ,1480304261 ,1501153617 ,1522002973 ,1542852329 ,1542852329 ,1563701685 ,1563701685 ,1563701685 ,1563701685
	 ,1584551040 ,1584551040 ,1605400396 ,1626249752 ,1647099108 ,1667948464 ,1688797819 ,1688797819 ,1709647175 ,1709647175
	 ,1688797819 ,1688797819 ,1667948464 ,1647099108 ,1626249752 ,1584551040 ,1563701685 ,1542852329 ,1501153617 ,1480304261
	 ,1438605550 ,1376057482 ,1334358771 ,1292660059 ,1230111992 ,1188413280 ,1146714569 ,1125865213 ,1084166501 ,1063317145
	 ,1042467790 ,1021618434 ,1000769078 ,959070366 ,917371655 ,896522299 ,854823587 ,833974232 ,813124876 ,792275520
	 ,771426164 ,771426164 ,750576808 ,750576808 ,729727453 ,688028741 ,667179385 ,625480674 ,604631318 ,583781962
	 ,562932606 ,562932606 ,562932606 ,583781962 ,583781962 ,604631318 ,604631318 ,604631318 ,604631318 ,604631318
	 ,604631318 ,583781962 ,583781962 ,604631318 ,604631318 ,625480674 ,625480674 ,646330029 ,646330029 ,646330029
	 ,646330029 ,625480674 ,625480674 ,625480674 ,646330029 ,646330029 ,646330029 ,646330029 ,646330029 ,646330029
	 ,646330029 ,625480674 ,625480674 ,625480674 ,625480674 ,646330029 ,667179385 ,688028741 ,708878097 ,729727453
	 ,750576808 ,750576808 ,750576808 ,750576808 ,729727453 ,708878097 ,708878097 ,688028741 ,688028741 ,688028741
	 ,708878097 ,708878097 ,729727453 ,729727453 ,750576808 ,750576808 ,750576808 ,729727453 ,729727453 ,708878097
	 ,708878097 ,688028741 ,667179385 ,667179385 ,667179385 ,667179385 ,667179385 ,667179385 ,667179385 ,667179385
	 ,667179385 ,667179385 ,667179385 ,667179385 ,646330029 ,646330029 ,646330029 ,646330029 ,646330029 ,646330029
	 ,646330029 ,646330029 ,646330029 ,646330029 ,646330029 ,646330029 ,625480674 ,625480674 ,625480674 ,604631318
	 ,604631318 ,604631318 ,625480674 ,625480674 ,646330029 ,646330029 ,667179385 ,667179385 ,667179385 ,667179385
	 ,646330029 ,625480674 ,625480674 ,604631318 ,604631318 ,583781962 ,583781962 ,604631318 ,604631318 ,604631318
	 ,604631318 ,583781962 ,583781962 ,562932606 ,562932606 ,562932606 ,562932606 ,583781962 ,583781962 ,625480674
	 ,646330029 ,646330029 ,667179385 ,646330029 ,646330029 ,625480674 ,604631318 ,583781962 ,562932606 ,562932606
	 ,562932606 ,583781962 ,583781962 ,583781962 ,604631318 ,604631318 ,583781962 ,583781962 ,583781962 ,583781962
	 ,583781962 ,604631318 ,625480674 ,646330029 ,667179385 ,708878097 ,708878097 ,729727453 ,729727453 ,729727453
	 ,708878097 ,708878097 ,688028741 ,688028741 ,688028741 ,688028741 ,688028741 ,688028741 ,708878097 ,729727453
	 ,750576808 ,771426164 ,792275520 ,833974232 ,854823587 ,875672943 ,896522299 ,896522299 ,896522299 ,896522299
	 ,875672943 ,875672943 ,875672943 ,875672943 ,896522299 ,917371655 ,917371655 ,938221011 ,938221011 ,938221011
	 ,917371655 ,875672943 ,833974232 ,792275520 ,750576808 ,708878097 ,688028741 ,667179385 ,646330029 ,667179385
	 ,667179385 ,688028741 ,688028741 ,688028741 ,708878097 ,688028741 ,688028741 ,688028741 ,688028741 ,667179385
	 ,667179385 ,667179385 ,667179385 ,646330029 ,646330029 ,625480674 ,625480674 ,604631318 ,604631318 ,604631318
	 ,604631318 ,604631318 ,625480674 ,646330029 ,646330029 ,667179385 ,667179385 ,646330029 ,625480674 ,604631318
	 ,583781962 ,562932606 ,542083250 ,521233895 ,521233895 ,521233895 ,521233895 ,521233895 ,521233895 ,521233895
	 ,500384539 ,479535183 ,479535183 ,500384539 ,562932606 ,667179385 ,833974232 ,1063317145 ,1334358771 ,1667948464
	 ,2022387512 ,-2147483648 ,-2147483648 ,-2147483648 ,-2147483648 ,-2147483648 ,-2147483648 ,-2147483648 ,-2147483648 ,-2147483648
	 ,-2147483648 ,-2147483648 ,1772195243 ,1313509415 ,896522299 ,583781962 ,375288404 ,271041625 ,271041625 ,333589692
	 ,437836471 ,562932606 ,667179385 ,750576808 ,792275520 ,813124876 ,792275520 ,771426164 ,750576808 ,750576808
	 ,750576808 ,750576808 ,771426164 ,771426164 ,771426164 ,771426164 ,750576808 ,729727453 ,729727453 ,729727453
	 ,750576808 ,792275520 ,833974232 ,875672943 ,896522299 ,896522299 ,896522299 ,875672943 ,854823587 ,833974232
	 ,813124876 ,813124876 ,833974232 ,854823587 ,896522299 ,938221011 ,979919722 ,1000769078 ,1000769078 ,1000769078
	 ,979919722 ,979919722 ,959070366 ,938221011 ,938221011 ,938221011 ,938221011 ,938221011 ,959070366 ,959070366
	 ,959070366 ,959070366 ,979919722 ,979919722 ,1000769078 ,1000769078 ,1021618434 ,1042467790 ,1042467790 ,1042467790
	 ,1063317145 ,1063317145 ,1063317145 ,1063317145 ,1063317145 ,1084166501 ,1105015857 ,1125865213 ,1146714569 ,1167563924
	 ,1188413280 ,1209262636 ,1230111992 ,1230111992 ,1250961348 ,1250961348 ,1271810703 ,1313509415 ,1334358771 ,1376057482
	 ,1438605550 ,1480304261 ,1542852329 ,1584551040 ,1626249752 ,1647099108 ,1667948464 ,1667948464 ,1667948464 ,1667948464
	 ,1667948464 ,1688797819 ,1709647175 ,1730496531 ,1751345887 ,1793044598 ,1813893954 ,1834743310 ,1855592666 ,1855592666
	 ,1855592666 ,1834743310 ,1813893954 ,1813893954 ,1813893954 ,1793044598 ,1793044598 ,1772195243 ,1751345887 ,1730496531
	 ,1688797819 ,1647099108 ,1584551040 ,1542852329 ,1501153617 ,1459454906 ,1417756194 ,1396906838 ,1376057482 ,1334358771
	 ,1313509415 ,1271810703 ,1230111992 ,1188413280 ,1146714569 ,1105015857 ,1084166501 ,1063317145 ,1042467790 ,1042467790
	 ,1021618434 ,1021618434 ,1000769078 ,979919722 ,938221011 ,917371655 ,896522299 ,896522299 ,875672943 ,875672943
	 ,896522299 ,896522299 ,896522299 ,896522299 ,896522299 ,875672943 ,875672943 ,875672943 ,875672943 ,875672943
	 ,875672943 ,875672943 ,875672943 ,896522299 ,896522299 ,896522299 ,896522299 ,896522299 ,896522299 ,896522299
	 ,896522299 ,896522299 ,875672943 ,875672943 ,854823587 ,813124876 ,792275520 ,792275520 ,771426164 ,792275520
	 ,813124876 ,833974232 ,875672943 ,917371655 ,959070366 ,979919722 ,979919722 ,979919722 ,959070366 ,938221011
	 ,917371655 ,896522299 ,875672943 ,896522299 ,917371655 ,938221011 ,979919722 ,1000769078 ,1021618434 ,1042467790
	 ,1042467790 ,1021618434 ,1000769078 ,979919722 ,938221011 ,896522299 ,875672943 ,854823587 ,833974232 ,833974232
	 ,833974232 ,833974232 ,833974232 ,854823587 ,875672943 ,896522299 ,896522299 ,917371655 ,917371655 ,938221011
	 ,938221011 ,917371655 ,917371655 ,896522299 ,875672943 ,875672943 ,854823587 ,854823587 ,833974232 ,833974232
	 ,833974232 ,833974232 ,833974232 ,833974232 ,833974232 ,833974232 ,833974232 ,833974232 ,813124876 ,813124876
	 ,813124876 ,813124876 ,813124876 ,813124876 ,813124876 ,813124876 ,813124876 ,813124876 ,813124876 ,813124876
	 ,813124876 ,813124876 ,792275520 ,792275520 ,792275520 ,792275520 ,792275520 ,792275520 ,813124876 ,813124876
	 ,813124876 ,813124876 ,792275520 ,792275520 ,813124876 ,813124876 ,813124876 ,813124876 ,813124876 ,833974232
	 ,833974232 ,833974232 ,833974232 ,833974232 ,854823587 ,854823587 ,854823587 ,854823587 ,854823587 ,854823587
	 ,833974232 ,833974232 ,833974232 ,833974232 ,833974232 ,833974232 ,833974232 ,813124876 ,813124876 ,813124876
	 ,792275520 ,771426164 ,771426164 ,750576808 ,729727453 ,729727453 ,729727453 ,750576808 ,750576808 ,771426164
	 ,792275520 ,813124876 ,833974232 ,854823587 ,854823587 ,875672943 ,896522299 ,896522299 ,917371655 ,917371655
	 ,917371655 ,917371655 ,917371655 ,917371655 ,917371655 ,917371655 ,917371655 ,896522299 ,896522299 ,896522299
	 ,896522299 ,896522299 ,917371655 ,938221011 ,959070366 ,979919722 ,1000769078 ,1021618434 ,1042467790 ,1042467790
	 ,1042467790 ,1021618434 ,1021618434 ,1000769078 ,979919722 ,979919722 ,959070366 ,938221011 ,938221011 ,917371655
	 ,896522299 ,896522299 ,875672943 ,854823587 ,833974232 ,833974232 ,813124876 ,813124876 ,792275520 ,792275520
	 ,771426164 ,771426164 ,750576808 ,750576808 ,750576808 ,750576808 ,750576808 ,750576808 ,750576808 ,750576808
	 ,729727453 ,729727453 ,708878097 ,708878097 ,688028741 ,688028741 ,688028741 ,688028741 ,688028741 ,708878097
	 ,708878097 ,708878097 ,708878097 ,708878097 ,708878097 ,688028741 ,688028741 ,667179385 ,667179385 ,667179385
	 ,688028741 ,708878097 ,708878097 ,708878097 ,708878097 ,708878097 ,688028741 ,646330029 ,625480674 ,583781962
	 ,562932606 ,583781962 ,625480674 ,708878097 ,854823587 ,1042467790 ,1292660059 ,1584551040 ,1938990089 ,-2147483648
	 ,-2147483648 ,-2147483648 ,-2147483648 ,-2147483648 ,-2147483648 ,-2147483648 ,-2147483648 ,-2147483648 ,-2147483648 ,-2147483648
	 ,-2147483648 ,1709647175 ,1271810703 ,917371655 ,646330029 ,458685827 ,375288404 ,354439048 ,416987116 ,500384539
	 ,583781962 ,667179385 ,750576808 ,792275520 ,813124876 ,813124876 ,813124876 ,813124876 ,792275520 ,792275520
	 ,771426164 ,771426164 ,771426164 ,771426164 ,750576808 ,750576808 ,729727453 ,729727453 ,729727453 ,729727453
	 ,729727453 ,729727453 ,750576808 ,750576808 ,771426164 ,792275520 ,792275520 ,813124876 ,833974232 ,854823587
	 ,875672943 ,875672943 ,875672943 ,875672943 ,875672943 ,854823587 ,854823587 ,833974232 ,833974232 ,833974232
	 ,833974232 ,854823587 ,875672943 ,896522299 ,917371655 ,938221011 ,959070366 ,979919722 ,1000769078 ,1021618434
	 ,1042467790 ,1042467790 ,1042467790 ,1021618434 ,1021618434 ,1021618434 ,1000769078 ,1000769078 ,1021618434 ,1021618434
	 ,1042467790 ,1063317145 ,1084166501 ,1105015857 ,1105015857 ,1125865213 ,1125865213 ,1125865213 ,1125865213 ,1146714569
	 ,1146714569 ,1167563924 ,1188413280 ,1230111992 ,1250961348 ,1292660059 ,1313509415 ,1355208127 ,1376057482 ,1396906838
	 ,1417756194 ,1438605550 ,1480304261 ,1501153617 ,1522002973 ,1563701685 ,1584551040 ,1605400396 ,1647099108 ,1667948464
	 ,1688797819 ,1688797819 ,1709647175 ,1730496531 ,1751345887 ,1772195243 ,1793044598 ,1813893954 ,1813893954 ,1813893954
	 ,1813893954 ,1813893954 ,1813893954 ,1793044598 ,1793044598 ,1751345887 ,1730496531 ,1688797819 ,1626249752 ,1584551040
	 ,1522002973 ,1459454906 ,1417756194 ,1376057482 ,1334358771 ,1313509415 ,1271810703 ,1250961348 ,1230111992 ,1188413280
	 ,1146714569 ,1125865213 ,1084166501 ,1063317145 ,1042467790 ,1021618434 ,1000769078 ,979919722 ,979919722 ,959070366
	 ,938221011 ,917371655 ,917371655 ,896522299 ,875672943 ,875672943 ,854823587 ,854823587 ,854823587 ,833974232
	 ,833974232 ,813124876 ,813124876 ,792275520 ,792275520 ,771426164 ,771426164 ,750576808 ,750576808 ,729727453
	 ,708878097 ,708878097 ,688028741 ,667179385 ,667179385 ,667179385 ,667179385 ,688028741 ,708878097 ,750576808
	 ,771426164 ,813124876 ,833974232 ,854823587 ,875672943 ,875672943 ,875672943 ,875672943 ,854823587 ,833974232
	 ,813124876 ,792275520 ,771426164 ,750576808 ,750576808 ,750576808 ,750576808 ,771426164 ,771426164 ,792275520
	 ,792275520 ,792275520 ,792275520 ,792275520 ,792275520 ,792275520 ,771426164 ,771426164 ,771426164 ,771426164
	 ,792275520 ,813124876 ,813124876 ,833974232 ,854823587 ,854823587 ,854823587 ,854823587 ,854823587 ,833974232
	 ,813124876 ,813124876 ,792275520 ,792275520 ,792275520 ,813124876 ,833974232 ,854823587 ,875672943 ,896522299
	 ,917371655 ,938221011 ,938221011 ,959070366 ,959070366 ,959070366 ,938221011 ,938221011 ,917371655 ,917371655
	 ,896522299 ,875672943 ,854823587 ,854823587 ,833974232 ,813124876 ,792275520 ,792275520 ,792275520 ,792275520
	 ,813124876 ,813124876 ,833974232 ,854823587 ,854823587 ,875672943 ,875672943 ,875672943 ,875672943 ,854823587
	 ,854823587 ,833974232 ,833974232 ,833974232 ,833974232 ,833974232 ,833974232 ,854823587 ,854823587 ,875672943
	 ,875672943 ,854823587 ,854823587 ,833974232 ,833974232 ,813124876 ,813124876 ,792275520 ,792275520 ,792275520
	 ,792275520 ,792275520 ,792275520 ,792275520 ,792275520 ,792275520 ,792275520 ,792275520 ,792275520 ,792275520
	 ,813124876 ,813124876 ,813124876 ,813124876 ,813124876 ,792275520 ,792275520 ,771426164 ,771426164 ,750576808
	 ,729727453 ,729727453 ,729727453 ,729727453 ,729727453 ,729727453 ,750576808 ,771426164 ,771426164 ,771426164
	 ,792275520 ,792275520 ,792275520 ,792275520 ,792275520 ,792275520 ,771426164 ,771426164 ,771426164 ,771426164
	 ,771426164 ,771426164 ,750576808 ,750576808 ,729727453 ,708878097 ,708878097 ,688028741 ,688028741 ,708878097
	 ,729727453 ,750576808 ,771426164 ,813124876 ,833974232 ,875672943 ,896522299 ,896522299 ,896522299 ,896522299
	 ,896522299 ,875672943 ,854823587 ,833974232 ,833974232 ,813124876 ,813124876 ,833974232 ,833974232 ,854823587
	 ,854823587 ,875672943 ,917371655 ,938221011 ,959070366 ,979919722 ,1000769078 ,1021618434 ,1021618434 ,1021618434
	 ,1021618434 ,1000769078 ,979919722 ,959070366 ,917371655 ,875672943 ,833974232 ,813124876 ,792275520 ,750576808
	 ,750576808 ,729727453 ,708878097 ,708878097 ,688028741 ,688028741 ,688028741 ,667179385 ,667179385 ,667179385
	 ,667179385 ,646330029 ,646330029 ,646330029 ,646330029 ,646330029 ,667179385 ,667179385 ,667179385 ,688028741
	 ,688028741 ,688028741 ,708878097 ,688028741 ,688028741 ,688028741 ,667179385 ,667179385 ,646330029 ,646330029
	 ,625480674 ,625480674 ,625480674 ,625480674 ,604631318 ,604631318 ,604631318 ,625480674 ,625480674 ,625480674
	 ,646330029 ,625480674 ,625480674 ,604631318 ,562932606 ,521233895 ,479535183 ,458685827 ,437836471 ,479535183
	 ,542083250 ,667179385 ,854823587 ,1084166501 ,1376057482 ,1688797819 ,2043236868 ,-2147483648 ,-2147483648 ,-2147483648
	 ,-2147483648 ,-2147483648 ,-2147483648 ,-2147483648 ,-2147483648 ,-2147483648 ,-2147483648 ,-2147483648 ,1730496531 ,1271810703
	 ,896522299 ,604631318 ,416987116 ,312740337 ,312740337 ,375288404 ,458685827 ,542083250 ,625480674 ,667179385
	 ,688028741 ,688028741 ,688028741 ,688028741 ,688028741 ,688028741 ,729727453 ,750576808 ,771426164 ,792275520
	 ,813124876 ,813124876 ,813124876 ,792275520 ,771426164 ,771426164 ,750576808 ,750576808 ,750576808 ,771426164
	 ,792275520 ,792275520 ,813124876 ,833974232 ,833974232 ,833974232 ,833974232 ,833974232 ,833974232 ,833974232
	 ,833974232 ,833974232 ,833974232 ,854823587 ,854823587 ,896522299 ,917371655 ,938221011 ,959070366 ,959070366
	 ,979919722 ,979919722 ,979919722 ,979919722 ,959070366 ,959070366 ,959070366 ,959070366 ,979919722 ,979919722
	 ,979919722 ,979919722 ,979919722 ,979919722 ,979919722 ,979919722 ,979919722 ,1000769078 ,1021618434 ,1063317145
	 ,1105015857 ,1146714569 ,1188413280 ,1230111992 ,1250961348 ,1271810703 ,1271810703 ,1271810703 ,1271810703 ,1250961348
	 ,1250961348 ,1250961348 ,1250961348 ,1271810703 ,1292660059 ,1334358771 ,1376057482 ,1396906838 ,1438605550 ,1459454906
	 ,1501153617 ,1522002973 ,1542852329 ,1563701685 ,1584551040 ,1605400396 ,1626249752 ,1647099108 ,1667948464 ,1688797819
	 ,1709647175 ,1730496531 ,1730496531 ,1751345887 ,1751345887 ,1751345887 ,1751345887 ,1772195243 ,1772195243 ,1772195243
	 ,1772195243 ,1772195243 ,1751345887 ,1730496531 ,1709647175 ,1688797819 ,1647099108 ,1626249752 ,1584551040 ,1542852329
	 ,1522002973 ,1459454906 ,1417756194 ,1376057482 ,1313509415 ,1250961348 ,1209262636 ,1167563924 ,1125865213 ,1084166501
	 ,1063317145 ,1042467790 ,1042467790 ,1021618434 ,1021618434 ,1000769078 ,979919722 ,959070366 ,938221011 ,917371655
	 ,896522299 ,875672943 ,854823587 ,854823587 ,833974232 ,833974232 ,833974232 ,833974232 ,813124876 ,813124876
	 ,792275520 ,792275520 ,792275520 ,792275520 ,792275520 ,792275520 ,792275520 ,792275520 ,771426164 ,771426164
	 ,750576808 ,750576808 ,729727453 ,708878097 ,708878097 ,708878097 ,729727453 ,750576808 ,771426164 ,792275520
	 ,813124876 ,833974232 ,854823587 ,854823587 ,875672943 ,875672943 ,875672943 ,875672943 ,854823587 ,833974232
	 ,813124876 ,792275520 ,771426164 ,771426164 ,750576808 ,750576808 ,750576808 ,750576808 ,750576808 ,771426164
	 ,771426164 ,771426164 ,792275520 ,792275520 ,792275520 ,813124876 ,813124876 ,813124876 ,833974232 ,833974232
	 ,833974232 ,833974232 ,833974232 ,833974232 ,833974232 ,833974232 ,833974232 ,854823587 ,854823587 ,875672943
	 ,896522299 ,896522299 ,917371655 ,917371655 ,896522299 ,896522299 ,875672943 ,875672943 ,854823587 ,833974232
	 ,813124876 ,813124876 ,813124876 ,792275520 ,792275520 ,792275520 ,792275520 ,792275520 ,792275520 ,792275520
	 ,792275520 ,792275520 ,792275520 ,792275520 ,792275520 ,813124876 ,813124876 ,833974232 ,833974232 ,854823587
	 ,854823587 ,854823587 ,833974232 ,813124876 ,792275520 ,771426164 ,750576808 ,750576808 ,750576808 ,750576808
	 ,771426164 ,792275520 ,813124876 ,833974232 ,854823587 ,854823587 ,833974232 ,813124876 ,792275520 ,771426164
	 ,771426164 ,750576808 ,750576808 ,771426164 ,771426164 ,792275520 ,813124876 ,813124876 ,813124876 ,792275520
	 ,792275520 ,771426164 ,750576808 ,750576808 ,750576808 ,750576808 ,771426164 ,792275520 ,792275520 ,813124876
	 ,813124876 ,813124876 ,792275520 ,771426164 ,750576808 ,729727453 ,729727453 ,729727453 ,750576808 ,771426164
	 ,792275520 ,813124876 ,813124876 ,833974232 ,833974232 ,813124876 ,813124876 ,792275520 ,771426164 ,771426164
	 ,750576808 ,750576808 ,750576808 ,750576808 ,750576808 ,771426164 ,771426164 ,771426164 ,771426164 ,792275520
	 ,771426164 ,771426164 ,771426164 ,771426164 ,771426164 ,792275520 ,813124876 ,833974232 ,854823587 ,896522299
	 ,917371655 ,938221011 ,938221011 ,938221011 ,938221011 ,917371655 ,875672943 ,854823587 ,854823587 ,854823587
	 ,875672943 ,896522299 ,959070366 ,1000769078 ,1063317145 ,1105015857 ,1125865213 ,1146714569 ,1125865213 ,1105015857
	 ,1063317145 ,1021618434 ,1000769078 ,959070366 ,938221011 ,938221011 ,938221011 ,938221011 ,938221011 ,938221011
	 ,938221011 ,938221011 ,917371655 ,896522299 ,875672943 ,833974232 ,792275520 ,771426164 ,750576808 ,708878097
	 ,708878097 ,688028741 ,688028741 ,688028741 ,708878097 ,708878097 ,708878097 ,708878097 ,708878097 ,708878097
	 ,708878097 ,729727453 ,729727453 ,750576808 ,771426164 ,792275520 ,792275520 ,792275520 ,792275520 ,771426164
	 ,750576808 ,729727453 ,708878097 ,708878097 ,688028741 ,688028741 ,667179385 ,667179385 ,667179385 ,646330029
	 ,646330029 ,646330029 ,646330029 ,667179385 ,688028741 ,729727453 ,750576808 ,750576808 ,750576808 ,729727453
	 ,688028741 ,625480674 ,583781962 ,562932606 ,583781962 ,646330029 ,771426164 ,959070366 ,1209262636 ,1480304261
	 ,1813893954 ,2147483647 ,-2147483648 ,-2147483648 ,-2147483648 ,-2147483648 ,-2147483648 ,-2147483648 ,-2147483648 ,-2147483648
	 ,-2147483648 ,-2147483648 ,1918140733 ,1459454906 ,1042467790 ,688028741 ,437836471 ,291890981 ,250192269 ,291890981
	 ,375288404 ,500384539 ,604631318 ,708878097 ,771426164 ,792275520 ,813124876 ,813124876 ,833974232 ,833974232
	 ,854823587 ,875672943 ,875672943 ,896522299 ,917371655 ,917371655 ,917371655 ,896522299 ,896522299 ,917371655
	 ,917371655 ,938221011 ,959070366 ,959070366 ,979919722 ,979919722 ,959070366 ,959070366 ,938221011 ,917371655
	 ,917371655 ,938221011 ,959070366 ,959070366 ,979919722 ,1000769078 ,1000769078 ,1000769078 ,1000769078 ,1000769078
	 ,979919722 ,979919722 ,979919722 ,979919722 ,979919722 ,979919722 ,1000769078 ,1000769078 ,1021618434 ,1021618434
	 ,1042467790 ,1063317145 ,1084166501 ,1105015857 ,1125865213 ,1146714569 ,1167563924 ,1167563924 ,1167563924 ,1146714569
	 ,1146714569 ,1125865213 ,1146714569 ,1146714569 ,1167563924 ,1188413280 ,1209262636 ,1230111992 ,1250961348 ,1250961348
	 ,1271810703 ,1271810703 ,1292660059 ,1292660059 ,1313509415 ,1334358771 ,1376057482 ,1396906838 ,1417756194 ,1438605550
	 ,1459454906 ,1480304261 ,1501153617 ,1522002973 ,1522002973 ,1542852329 ,1584551040 ,1605400396 ,1647099108 ,1688797819
	 ,1730496531 ,1751345887 ,1793044598 ,1813893954 ,1834743310 ,1834743310 ,1855592666 ,1855592666 ,1855592666 ,1855592666
	 ,1834743310 ,1834743310 ,1813893954 ,1793044598 ,1793044598 ,1772195243 ,1751345887 ,1751345887 ,1751345887 ,1730496531
	 ,1730496531 ,1709647175 ,1688797819 ,1667948464 ,1626249752 ,1584551040 ,1542852329 ,1501153617 ,1459454906 ,1417756194
	 ,1376057482 ,1334358771 ,1292660059 ,1250961348 ,1209262636 ,1167563924 ,1125865213 ,1063317145 ,1021618434 ,979919722
	 ,938221011 ,917371655 ,917371655 ,917371655 ,917371655 ,917371655 ,917371655 ,917371655 ,917371655 ,896522299
	 ,896522299 ,875672943 ,875672943 ,875672943 ,875672943 ,875672943 ,854823587 ,854823587 ,854823587 ,833974232
	 ,833974232 ,813124876 ,813124876 ,813124876 ,813124876 ,813124876 ,833974232 ,854823587 ,875672943 ,875672943
	 ,875672943 ,875672943 ,854823587 ,854823587 ,833974232 ,833974232 ,833974232 ,813124876 ,833974232 ,833974232
	 ,833974232 ,833974232 ,833974232 ,833974232 ,833974232 ,854823587 ,854823587 ,854823587 ,875672943 ,875672943
	 ,896522299 ,896522299 ,896522299 ,896522299 ,896522299 ,896522299 ,896522299 ,896522299 ,896522299 ,917371655
	 ,917371655 ,938221011 ,938221011 ,938221011 ,938221011 ,917371655 ,896522299 ,875672943 ,854823587 ,833974232
	 ,813124876 ,833974232 ,833974232 ,854823587 ,854823587 ,875672943 ,875672943 ,875672943 ,875672943 ,875672943
	 ,875672943 ,875672943 ,875672943 ,875672943 ,875672943 ,875672943 ,875672943 ,854823587 ,854823587 ,833974232
	 ,813124876 ,813124876 ,792275520 ,792275520 ,813124876 ,813124876 ,813124876 ,833974232 ,833974232 ,833974232
	 ,833974232 ,813124876 ,792275520 ,792275520 ,771426164 ,750576808 ,750576808 ,750576808 ,750576808 ,750576808
	 ,750576808 ,750576808 ,750576808 ,750576808 ,771426164 ,771426164 ,771426164 ,792275520 ,813124876 ,833974232
	 ,833974232 ,854823587 ,854823587 ,854823587 ,854823587 ,833974232 ,813124876 ,792275520 ,771426164 ,771426164
	 ,750576808 ,729727453 ,708878097 ,708878097 ,708878097 ,708878097 ,729727453 ,729727453 ,750576808 ,771426164
	 ,771426164 ,792275520 ,792275520 ,771426164 ,771426164 ,771426164 ,750576808 ,750576808 ,750576808 ,750576808
	 ,771426164 ,771426164 ,792275520 ,792275520 ,792275520 ,792275520 ,771426164 ,750576808 ,729727453 ,729727453
	 ,708878097 ,708878097 ,708878097 ,729727453 ,729727453 ,750576808 ,771426164 ,771426164 ,792275520 ,792275520
	 ,792275520 ,771426164 ,771426164 ,771426164 ,771426164 ,771426164 ,771426164 ,792275520 ,792275520 ,813124876
	 ,813124876 ,813124876 ,813124876 ,813124876 ,813124876 ,833974232 ,854823587 ,875672943 ,875672943 ,896522299
	 ,917371655 ,938221011 ,938221011 ,938221011 ,917371655 ,917371655 ,896522299 ,896522299 ,896522299 ,896522299
	 ,917371655 ,938221011 ,938221011 ,959070366 ,979919722 ,979919722 ,979919722 ,979919722 ,979919722 ,979919722
	 ,959070366 ,959070366 ,979919722 ,979919722 ,979919722 ,979919722 ,1000769078 ,979919722 ,979919722 ,959070366
	 ,959070366 ,938221011 ,896522299 ,875672943 ,854823587 ,833974232 ,833974232 ,813124876 ,813124876 ,792275520
	 ,792275520 ,792275520 ,792275520 ,792275520 ,792275520 ,792275520 ,771426164 ,771426164 ,750576808 ,750576808
	 ,750576808 ,750576808 ,771426164 ,771426164 ,792275520 ,792275520 ,792275520 ,792275520 ,771426164 ,771426164
	 ,750576808 ,750576808 ,750576808 ,750576808 ,750576808 ,750576808 ,771426164 ,750576808 ,750576808 ,729727453
	 ,729727453 ,708878097 ,708878097 ,708878097 ,708878097 ,708878097 ,708878097 ,708878097 ,688028741 ,646330029
	 ,625480674 ,625480674 ,667179385 ,750576808 ,875672943 ,1084166501 ,1355208127 ,1667948464 ,2022387512 ,-2147483648
	 ,-2147483648 ,-2147483648 ,-2147483648 ,-2147483648 ,-2147483648 ,-2147483648 ,-2147483648 ,-2147483648 ,-2147483648 ,-2147483648
	 ,1793044598 ,1334358771 ,938221011 ,625480674 ,396137760 ,271041625 ,250192269 ,312740337 ,416987116 ,542083250
	 ,667179385 ,750576808 ,813124876 ,833974232 ,813124876 ,792275520 ,771426164 ,750576808 ,729727453 ,729727453
	 ,708878097 ,708878097 ,708878097 ,708878097 ,708878097 ,729727453 ,729727453 ,771426164 ,792275520 ,833974232
	 ,854823587 ,875672943 ,896522299 ,896522299 ,875672943 ,875672943 ,854823587 ,854823587 ,854823587 ,854823587
	 ,854823587 ,875672943 ,875672943 ,875672943 ,875672943 ,875672943 ,875672943 ,875672943 ,875672943 ,875672943
	 ,875672943 ,896522299 ,896522299 ,896522299 ,917371655 ,917371655 ,917371655 ,917371655 ,917371655 ,938221011
	 ,938221011 ,959070366 ,979919722 ,979919722 ,1000769078 ,1000769078 ,1000769078 ,1000769078 ,1021618434 ,1021618434
	 ,1021618434 ,1042467790 ,1063317145 ,1084166501 ,1105015857 ,1125865213 ,1167563924 ,1188413280 ,1209262636 ,1230111992
	 ,1250961348 ,1250961348 ,1271810703 ,1292660059 ,1313509415 ,1355208127 ,1376057482 ,1396906838 ,1438605550 ,1459454906
	 ,1480304261 ,1501153617 ,1522002973 ,1542852329 ,1563701685 ,1584551040 ,1605400396 ,1626249752 ,1647099108 ,1667948464
	 ,1667948464 ,1688797819 ,1709647175 ,1709647175 ,1730496531 ,1730496531 ,1751345887 ,1751345887 ,1772195243 ,1772195243
	 ,1793044598 ,1813893954 ,1813893954 ,1834743310 ,1834743310 ,1834743310 ,1813893954 ,1772195243 ,1751345887 ,1688797819
	 ,1647099108 ,1605400396 ,1542852329 ,1501153617 ,1459454906 ,1417756194 ,1396906838 ,1355208127 ,1313509415 ,1271810703
	 ,1230111992 ,1209262636 ,1167563924 ,1146714569 ,1125865213 ,1125865213 ,1105015857 ,1084166501 ,1063317145 ,1042467790
	 ,1021618434 ,1000769078 ,979919722 ,959070366 ,938221011 ,938221011 ,938221011 ,938221011 ,938221011 ,938221011
	 ,917371655 ,917371655 ,896522299 ,875672943 ,875672943 ,854823587 ,854823587 ,854823587 ,854823587 ,854823587
	 ,854823587 ,854823587 ,854823587 ,854823587 ,854823587 ,833974232 ,833974232 ,833974232 ,833974232 ,833974232
};