tiempo, mV
0,-0.085
0.002,-0.0551153886513551
0.004,-0.0283361648989909
0.006,-0.0286844131495981
0.008,-0.0542020580387422
0.01,-0.0582442949541505
0.012,-0.0732427304515232
0.014,-0.0698856889115098
0.016,-0.059444975677367
0.018,-0.032991504531826
0.02,-0.00293660902229078
0.022,0.00620769119096901
0.024,-0.019472144855025
0.026,-0.0436217618040616
0.028,-0.0678261813460759
0.03,-0.0809788696740969
0.032,-0.0774631217092966
0.034,-0.0574334251241213
0.036,-0.0340486168247776
0.038,0.000847289364222382
0.04,-0.0147328848624516
0.042,-0.0220561778197185
0.044,-0.0289295777022792
0.046,-0.0338325991944723
0.048,-0.0446564824500985
0.05,-0.04
0.052,-0.0273012568980953
0.054,-0.0288067210305298
0.056,-0.0425590122060218
0.058,-0.0555831424052836
0.06,-0.0752671151375483
0.062,-0.0982079691392203
0.064,-0.0994627932669214
0.066,-0.0849272546508767
0.068,-0.0805791389425096
0.07,-0.0840211303259031
0.072,-0.0952160793057302
0.074,-0.103738917970936
0.076,-0.109039265236674
0.078,-0.0835683709659669
0.08,-0.0720633909777092
0.082,-0.0496478156931762
0.084,-0.0120436142309341
0.086,0.00224636868650759
0.088,0.0062849911033293
0.09,-0.0167557050458493
0.092,-0.0377556813094515
0.094,-0.0439549070754039
0.096,-0.0481524250093102
0.098,-0.0275239315736471
0.1,-0.00500000000000006
0.102,0.0125239315736469
0.104,0.0281524250093101
0.106,0.033954907075404
0.108,0.0027556813094517
0.11,-0.0132442949541505
0.112,-0.00628499110332928
0.114,0.0027536313134923
0.116,0.027043614230934
0.118,0.064647815693176
0.12,0.0970633909777091
0.122,0.118568370965967
0.124,0.119039265236674
0.126,0.0937389179709364
0.128,0.0802160793057303
0.13,0.0840211303259031
0.132,0.0855791389425094
0.134,0.0949272546508766
0.136,0.129462793266921
0.138,0.12820796913922
0.14,0.125267115137548
0.142,0.115583142405284
0.144,0.0925590122060221
0.146,0.0888067210305299
0.148,0.0773012568980952
0.15,0.0799999999999998
0.152,0.0896564824500985
0.154,0.0888325991944723
0.156,0.113929577702279
0.158,0.132056177819719
0.16,0.124732884862452
0.162,0.119152710635778
0.164,0.139048616824778
0.166,0.152433425124121
0.168,0.147463121709297
0.17,0.160978869674097
0.172,0.147826181346076
0.174,0.133621761804062
0.176,0.124472144855025
0.178,0.128792308809031
0.18,0.132936609022291
0.182,0.137991504531826
0.184,0.159444975677367
0.186,0.15988568891151
0.188,0.153242730451523
0.19,0.143244294954151
0.192,0.124202058038742
0.194,0.113684413149598
0.196,0.123336164898991
0.198,0.130115388651355
0.2,0.165
0.202,0.189884611348645
0.204,0.211663835101009
0.206,0.191315586850402
0.208,0.175797941961258
0.21,0.14175570504585
0.212,0.116757269548477
0.214,0.10011431108849
0.216,0.115555024322633
0.218,0.137008495468174
0.22,0.142063390977709
0.222,0.121207691190969
0.224,0.105527855144975
0.226,0.0663782381959384
0.228,0.0421738186539241
0.23,0.024021130325903
0.232,0.0125368782907034
0.234,0.0175665748758787
0.236,0.0359513831752223
0.238,0.0408472893642224
0.24,0.0402671151375487
0.242,0.0329438221802817
0.244,0.011070422297721
0.246,0.0161674008055277
0.248,0.0253435175499014
0.25,0.0499999999999998
0.252,0.0626987431019045
0.254,0.0711932789694701
0.256,0.0774409877939782
0.258,0.0744168575947167
0.26,0.0547328848624517
0.262,0.0667920308607797
0.264,0.0555372067330784
0.266,0.0350727453491233
0.268,0.0394208610574903
0.27,0.0309788696740969
0.272,0.0397839206942698
0.274,0.0312610820290638
0.276,0.0309607347633263
0.278,0.0314316290340332
0.28,0.0529366090222909
0.282,0.0753521843068233
0.284,0.112956385769065
0.286,0.117246368686507
0.288,0.111284991103329
0.29,0.103244294954151
0.292,0.0922443186905487
0.294,0.0810450929245963
0.296,0.0818475749906897
0.298,0.0974760684263528
0.3,0.12
0.302,0.137523931573647
0.304,0.15815242500931
0.306,0.148954907075404
0.308,0.117755681309452
0.31,0.10675570504585
0.312,0.103715008896671
0.314,0.112753631313492
0.316,0.142043614230934
0.318,0.169647815693176
0.32,0.182063390977709
0.322,0.203568370965967
0.324,0.199039265236674
0.326,0.188738917970936
0.328,0.17021607930573
0.33,0.144021130325903
0.332,0.145579138942509
0.334,0.154927254650876
0.336,0.189462793266921
0.338,0.19320796913922
0.34,0.170267115137549
0.342,0.160583142405284
0.344,0.132559012206022
0.346,0.10380672103053
0.348,0.097301256898095
0.35,0.105
0.352,0.104656482450098
0.354,0.113832599194472
0.356,0.11392957770228
0.358,0.117056177819719
0.36,0.104732884862452
0.362,0.109152710635778
0.364,0.109048616824778
0.366,0.117433425124121
0.368,0.127463121709296
0.37,0.140978869674097
0.372,0.122826181346076
0.374,0.108621761804062
0.376,0.0994721448550253
0.378,0.093792308809031
0.38,0.0879366090222906
0.382,0.0879915045318257
0.384,0.094444975677367
0.386,0.0898856889115096
0.388,0.0932427304515232
0.39,0.0782442949541505
0.392,0.0742020580387426
0.394,0.0736844131495984
0.396,0.093336164898991
0.398,0.110115388651355
0.4,0.13
0.402,0.159884611348645
0.404,0.171663835101009
0.406,0.156315586850402
0.408,0.150797941961258
0.41,0.14175570504585
0.412,0.131757269548477
0.414,0.14511431108849
0.416,0.165555024322633
0.418,0.182008495468173
0.42,0.172063390977709
0.422,0.171207691190969
0.424,0.150527855144975
0.426,0.121378238195939
0.428,0.102173818653924
0.43,0.104021130325903
0.432,0.0975368782907031
0.434,0.122566574875879
0.436,0.140951383175222
0.438,0.150847289364222
0.44,0.155267115137549
0.442,0.157943822180282
0.444,0.131070422297721
0.446,0.116167400805528
0.448,0.105343517549901
0.45,0.12
0.452,0.122698743101905
0.454,0.12619327896947
0.456,0.122440987793978
0.458,0.0994168575947164
0.46,0.0797328848624518
0.462,0.0617920308607795
0.464,0.0355372067330787
0.466,0.025072745349123
0.468,0.0294208610574903
0.47,0.0309788696740968
0.472,0.0297839206942699
0.474,0.0262610820290643
0.476,0.0309607347633265
0.478,0.0214316290340331
0.48,0.0429366090222905
0.482,0.0853521843068234
0.484,0.0929563857690656
0.486,0.107246368686507
0.488,0.0862849911033294
0.49,0.0882442949541507
0.492,0.062244318690549
0.494,0.0610450929245963
0.496,0.0618475749906899
0.498,0.0774760684263525
0.5,0.0999999999999995
0.502,0.127523931573647
0.504,0.12315242500931
0.506,0.103954907075404
0.508,0.0877556813094518
0.51,0.08175570504585
0.512,0.0737150088966708
0.514,0.0927536313134922
0.516,0.127043614230934
0.518,0.174647815693176
0.52,0.187063390977709
0.522,0.198568370965967
0.524,0.184039265236674
0.526,0.168738917970936
0.528,0.15021607930573
0.53,0.144021130325903
0.532,0.140579138942509
0.534,0.164927254650876
0.536,0.199462793266921
0.538,0.18820796913922
0.54,0.175267115137549
0.542,0.150583142405284
0.544,0.117559012206022
0.546,0.0988067210305295
0.548,0.092301256898095
0.55,0.0849999999999999
0.552,0.0896564824500982
0.554,0.113832599194472
0.556,0.138929577702279
0.558,0.137056177819719
0.56,0.124732884862452
0.562,0.129152710635778
0.564,0.124048616824777
0.566,0.0974334251241205
0.568,0.107463121709296
0.57,0.115978869674097
0.572,0.0928261813460763
0.574,0.0786217618040627
0.576,0.0644721448550259
0.578,0.0437923088090313
0.58,0.0329366090222905
0.582,0.0379915045318254
0.584,0.0444449756773665
0.586,0.0248856889115093
0.588,0.0382427304515232
0.59,0.0282442949541509
0.592,0.024202058038743
0.594,0.0286844131495984
0.596,0.0383361648989909
0.598,0.0551153886513544
0.6,0.0949999999999993
0.602,0.0998846113486442
0.604,0.0966638351010088
0.606,0.0963155868504021
0.608,0.0857979419612581
0.61,0.06675570504585
0.612,0.0717572695484768
0.614,0.07511431108849
0.616,0.0955550243226321
0.618,0.112008495468173
0.62,0.117063390977709
0.622,0.111207691190969
0.624,0.0955278551449756
0.626,0.0663782381959388
0.628,0.0371738186539242
0.63,0.0190211303259029
0.632,0.032536878290703
0.634,0.0575665748758786
0.636,0.0809513831752222
0.638,0.0958472893642226
0.64,0.0952671151375485
0.642,0.0779438221802821
0.644,0.0460704222977211
0.646,0.0311674008055279
0.648,0.040343517549901
0.65,0.0399999999999996
0.652,0.0576987431019045
0.654,0.07619327896947
0.656,0.0424409877939782
0.658,0.0294168575947163
0.66,0.0147328848624521
0.662,-0.0132079691392202
0.664,-0.0344627932669215
0.666,-0.0549272546508772
0.668,-0.0555791389425099
0.67,-0.0640211303259031
0.672,-0.07021607930573
0.674,-0.0737389179709359
0.676,-0.0740392652366736
0.678,-0.0685683709659667
0.68,-0.0270633909777094
0.682,0.025352184306824
0.684,0.0929563857690658
0.686,0.162246368686507
0.688,0.211284991103329
0.69,0.263244294954152
0.692,0.332244318690549
0.694,0.411045092924597
0.696,0.51184757499069
0.698,0.632476068426352
0.7,0.719999999999999
0.702,0.747523931573646
0.704,0.70315242500931
0.706,0.643954907075404
0.708,0.572755681309453
0.71,0.47675570504585
0.712,0.398715008896671
0.714,0.332753631313491
0.716,0.247043614230933
0.718,0.139647815693175
0.72,0.0670633909777087
0.722,0.00356837096596707
0.724,-0.0409607347633253
0.726,-0.0512610820290625
0.728,-0.0497839206942695
0.73,-0.0459788696740972
0.732,-0.0144208610574914
0.734,0.0349272546508762
0.736,0.0694627932669209
0.738,0.0882079691392206
0.74,0.0752671151375489
0.742,0.0455831424052845
0.744,0.00255901220602274
0.746,-0.0311932789694701
0.748,-0.0476987431019051
0.75,-0.045000000000001
0.752,-0.0203435175499019
0.754,-0.0061674008055278
0.756,-0.00607042229772077
0.758,0.002056177819719
0.76,-0.0102671151375476
0.762,-0.0208472893642222
0.764,-0.0359513831752224
0.766,-0.0175665748758793
0.768,-0.0225368782907034
0.77,-0.0190211303259032
0.772,-0.0121738186539238
0.774,-0.0263782381959384
0.776,-0.0355278551449747
0.778,-0.0412076911909688
0.78,-0.0570633909777093
0.782,-0.0470084954681745
0.784,-0.0355550243226339
0.786,-0.0351143110884902
0.788,-0.0267572695484768
0.79,-0.0417557050458489
0.792,-0.0407979419612578
0.794,-0.0313155868504016
0.796,-0.0216638351010091
0.798,0.000115388651355304
0.8,0.0399999999999999
0.802,0.0498846113486448
0.804,0.0516638351010094
0.806,0.0463155868504023
0.808,0.0357979419612584
0.81,0.0267557050458494
0.812,0.0317572695484769
0.814,0.0551143110884898
0.816,0.0655550243226322
0.818,0.0820084954681728
0.82,0.0820633909777093
0.822,0.0612076911909693
0.824,0.0555278551449763
0.826,0.0213782381959388
0.828,0.0121738186539245
0.83,0.00402113032590276
0.832,0.0225368782907031
0.834,0.0425665748758779
0.836,0.0709513831752219
0.838,0.0808472893642222
0.84,0.0852671151375492
0.842,0.0729438221802826
0.844,0.0560704222977213
0.846,0.0461674008055277
0.848,0.0353435175499009
0.85,0.0499999999999998
0.852,0.0576987431019045
0.854,0.0661932789694701
0.856,0.0574409877939786
0.858,0.0444168575947171
0.86,0.0247328848624527
0.862,0.0117920308607797
0.864,0.00553720673307846
0.866,0.0150727453491223
0.868,0.0244208610574903
0.87,0.0259788696740968
0.872,0.0397839206942702
0.874,0.0462610820290639
0.876,0.0459607347633268
0.878,0.0414316290340334
0.88,0.0629366090222909
0.882,0.0753521843068232
0.884,0.0979563857690651
0.886,0.112246368686507
0.888,0.11128499110333
0.89,0.108244294954151
0.892,0.112244318690549
0.894,0.116045092924596
0.896,0.13184757499069
0.898,0.142476068426353
0.9,0.159999999999999
0.902,0.162523931573646
0.904,0.17815242500931
0.906,0.178954907075404
0.908,0.157755681309453
0.91,0.15175570504585
0.912,0.163715008896671
0.914,0.197753631313492
0.916,0.222043614230934
0.918,0.249647815693176
0.92,0.262063390977709
0.922,0.258568370965967
0.924,0.244039265236675
0.926,0.228738917970937
0.928,0.22021607930573
0.93,0.219021130325903
0.932,0.225579138942509
0.934,0.254927254650877
0.936,0.264462793266921
0.938,0.258207969139221
0.94,0.230267115137549
0.942,0.180583142405285
0.944,0.137559012206023
0.946,0.10880672103053
0.948,0.102301256898095
0.95,0.105
0.952,0.119656482450098
0.954,0.108832599194473
0.956,0.11892957770228
0.958,0.10705617781972
0.96,0.0797328848624527
0.962,0.0541527106357775
0.964,0.0440486168247771
0.966,0.0474334251241198
0.968,0.0474631217092961
0.97,0.0309788696740967
0.972,0.0128261813460765
0.974,0.00862176180406232
0.976,-0.0105278551449742
0.978,-0.0312076911909684
0.98,-0.0470633909777097
0.982,-0.0570084954681749
0.984,-0.0605550243226341
0.986,-0.0551143110884907
0.988,-0.0617572695484768
0.99,-0.0617557050458486
0.992,-0.0507979419612573
0.994,-0.0463155868504012
0.996,-0.0516638351010092
0.998,-0.0298846113486451
1,-0.0100000000000009
1.002,-0.00511538865135635
1.004,0.00166383510100897
1.006,-0.00868441314959788
1.008,-0.0242020580387412
1.01,-0.0232442949541501
1.012,-0.0132427304515231
1.014,-0.0148856889115104
1.016,0.0155550243226323
1.018,0.0170084954681733
1.02,0.0270633909777091
1.022,0.00120769119096901
1.024,-0.0194721448550242
1.026,-0.0436217618040607
1.028,-0.0578261813460758
1.03,-0.0459788696740971
1.032,-0.0374631217092976
1.034,-0.0124334251241212
1.036,0.0159513831752221
1.038,0.0108472893642228
1.04,0.00526711513754887
1.042,-0.0270561778197181
1.044,-0.0439295777022782
1.046,-0.0488325991944724
1.048,-0.0496564824500987
1.05,-0.0350000000000011
1.052,-0.0223012568980959
1.054,-0.0138067210305299
1.056,-0.0425590122060218
1.058,-0.0405831424052835
1.06,-0.090267115137548
1.062,-0.10320796913922
1.064,-0.109462793266922
1.066,-0.114927254650877
1.068,-0.10557913894251
1.07,-0.0840211303259032
1.072,-0.08021607930573
1.074,-0.0887389179709351
1.076,-0.0990392652366736
1.078,-0.103568370965967
1.08,-0.107063390977709
1.082,-0.0946478156931761
1.084,-0.0720436142309343
1.086,-0.0577536313134926
1.088,-0.0437150088966703
1.09,-0.0217557050458491
1.092,-0.0327556813094507
1.094,-0.0389549070754041
1.096,-0.03815242500931
1.098,-0.027523931573648
1.1,-0.0249999999999999
1.102,-0.0224760684263538
1.104,-0.0268475749906899
1.106,-0.036045092924596
1.108,-0.052244318690548
1.11,-0.0532442949541497
1.112,-0.0512849911033292
1.114,-0.0222463686865073
1.116,0.0020436142309336
1.118,0.0296478156931764
1.12,0.0420633909777095
1.122,0.0435683709659674
1.124,0.0290392652366743
1.126,0.0137389179709374
1.128,0.000216079305730872
1.13,0.00902113032590257
1.132,0.0155791389425086
1.134,0.0299272546508753
1.136,0.0444627932669207
1.138,0.0382079691392207
1.14,0.0102671151375505
1.142,-0.00941685759471416
1.144,-0.0474409877939766
1.146,-0.0661932789694698
1.148,-0.0726987431019056
1.15,-0.0650000000000011
1.152,-0.0403435175499022
1.154,-0.0311674008055278
1.156,-0.01607042229772
1.158,-0.0329438221802798
1.16,-0.0652671151375466
1.162,-0.0708472893642221
1.164,-0.0709513831752236
1.166,-0.0725665748758806
1.168,-0.0675368782907045
1.17,-0.0390211303259034
1.172,-0.0421738186539231
1.174,-0.0463782381959372
1.176,-0.0555278551449733
1.178,-0.0762076911909682
1.18,-0.0970633909777095
1.182,-0.0970084954681756
1.184,-0.060555024322635
1.186,-0.0801143110884907
1.188,-0.0817572695484769
1.19,-0.0717557050458481
1.192,-0.0707979419612566
1.194,-0.0813155868504013
1.196,-0.0566638351010092
1.198,-0.0448846113486463
1.2,-0.0400000000000015
1.202,-0.025115388651357
1.204,-0.0133361648989914
1.206,-0.0136844131495977
1.208,-0.0192020580387407
1.21,-0.0232442949541497
1.212,-0.013242730451523
1.214,-0.00988568891151084
1.216,0.00555502432263189
1.218,0.0320084954681726
1.22,0.0220633909777086
1.222,0.0062076911909697
1.224,-0.0144721448550238
1.226,-0.0536217618040599
1.228,-0.0678261813460755
1.23,-0.0509788696740973
1.232,-0.0374631217092981
1.234,-0.0124334251241221
1.236,0.0009513831752219
1.238,0.00584728936422292
1.24,-0.00973288486245048
1.242,-0.0320561778197173
1.244,-0.0389295777022782
1.246,-0.0438325991944724
1.248,-0.0296564824500993
1.25,-0.0150000000000005
1.252,0.00269874310190435
1.254,0.02119327896947
1.256,0.00244098779397877
1.258,-0.0355831424052829
1.26,-0.0752671151375476
1.262,-0.0832079691392199
1.264,-0.094462793266922
1.266,-0.0949272546508776
1.268,-0.08557913894251
1.27,-0.0640211303259032
1.272,-0.0552160793057296
1.274,-0.0587389179709358
1.276,-0.0440392652366729
1.278,-0.0685683709659663
1.28,-0.0620633909777095
1.282,-0.0546478156931766
1.284,-0.0370436142309353
1.286,-0.0227536313134923
1.288,-0.0137150088966708
1.29,-0.00175570504584857
1.292,0.00224431869054842
1.294,0.00104509292459623
1.296,0.00184757499068988
1.298,0.00247606842635281
1.3,0.00499999999999929
1.302,0.0175239315736461
1.304,0.01815242500931
1.306,0.0139549070754042
1.308,0.00275568130945256
1.31,-0.00824429495415056
1.312,-0.00628499110332907
1.314,0.017753631313492
1.316,0.0470436142309342
1.318,0.0596478156931759
1.32,0.0470633909777089
1.322,0.0385683709659673
1.324,0.0240392652366744
1.326,-0.00626108202906267
1.328,-0.00978392069426973
1.33,-0.00597886967409709
1.332,0.00557913894250858
1.334,0.00992725465087624
1.336,0.0344627932669207
1.338,0.0182079691392205
1.34,-0.024732884862452
1.342,-0.0494168575947159
1.344,-0.082440987793978
1.346,-0.106193278969471
1.348,-0.0926987431019052
1.35,-0.0750000000000011
1.352,-0.0603435175499013
1.354,-0.0561674008055278
1.356,-0.0460704222977202
1.358,-0.0779438221802813
1.36,-0.0902671151375469
1.362,-0.100847289364222
1.364,-0.100951383175223
1.366,-0.08756657487588
1.368,-0.0675368782907041
1.37,-0.0640211303259031
1.372,-0.0671738186539236
1.374,-0.0813782381959381
1.376,-0.100527855144973
1.378,-0.116207691190968
1.38,-0.13706339097771
1.382,-0.137008495468176
1.384,-0.120555024322635
1.386,-0.130114311088492
1.388,-0.116757269548477
1.39,-0.111755705045849
1.392,-0.100797941961256
1.394,-0.0913155868504009
1.396,-0.0866638351010101
1.398,-0.0798846113486474
1.4,-0.0600000000000026
1.402,-0.0601153886513565
1.404,-0.0433361648989915
1.406,-0.0536844131495976
1.408,-0.0592020580387412
1.41,-0.0482442949541487
1.412,-0.048242730451523
1.414,-0.0398856889115103
1.416,-0.0344449756773699
1.418,-0.0429915045318275
1.42,-0.0479366090222913
1.422,-0.0637923088090297
1.424,-0.104472144855023
1.426,-0.13862176180406
1.428,-0.132826181346075
1.43,-0.105978869674097
1.432,-0.0374631217092977
1.434,0.0425665748758763
1.436,0.110951383175221
1.438,0.165847289364223
1.44,0.205267115137551
1.442,0.247943822180284
1.444,0.286070422297722
1.446,0.396167400805528
1.448,0.5253435175499
1.45,0.659999999999999
1.452,0.717698743101903
1.454,0.68619327896947
1.456,0.627440987793979
1.458,0.544416857594719
1.46,0.449732884862453
1.462,0.33679203086078
1.464,0.245537206733078
1.466,0.140072745349122
1.468,0.0394208610574896
1.47,-0.0690211303259038
1.472,-0.15521607930573
1.474,-0.203738917970935
1.476,-0.204039265236672
1.478,-0.188568370965966
1.48,-0.17206339097771
1.482,-0.149647815693179
1.484,-0.102043614230936
1.486,-0.0477536313134929
1.488,-0.0437150088966704
1.49,-0.0217557050458481
1.492,-0.037755681309451
1.494,-0.0589549070754024
1.496,-0.0581524250093108
1.498,-0.0525239315736478
1.5,-0.0650000000000026
1.502,-0.0574760684263545
1.504,-0.0618475749906897
1.506,-0.0610450929245963
1.508,-0.0672443186905467
1.51,-0.0682442949541501
1.512,-0.0612849911033293
1.514,-0.0322463686865086
1.516,-0.0279563857690668
1.518,-0.00535218430682352
1.52,0.00206339097770878
1.522,0.00356837096596711
1.524,0.00403926523667406
1.526,-0.0112610820290623
1.528,0.000216079305730692
1.53,0.00402113032590307
1.532,0.0205791389425082
1.534,0.0449272546508759
1.536,0.0344627932669209
1.538,0.00820796913922052
1.54,-0.014732884862451
1.542,-0.0444168575947165
1.544,-0.0624409877939772
1.546,-0.0811932789694702
1.548,-0.0576987431019047
1.55,-0.0450000000000012
1.552,-0.0303435175499019
1.554,-0.0161674008055277
1.556,-0.0210704222977197
1.558,-0.042943822180281
1.56,-0.0652671151375481
1.562,-0.0658472893642222
1.564,-0.0559513831752224
1.566,-0.0375665748758786
1.568,-0.00253687829070437
1.57,0.0209788696740967
1.572,0.0228261813460757
1.574,0.00862176180406278
1.576,-0.0205278551449748
1.578,-0.0462076911909694
1.58,-0.0670633909777096
1.582,-0.0620084954681749
1.584,-0.0505550243226328
1.586,-0.0201143110884913
1.588,-0.0117572695484768
1.59,-0.00675570504584944
1.592,0.00420205803874352
1.594,0.013684413149599
1.596,0.0233361648989911
1.598,0.0251153886513544
1.6,0.0399999999999997
1.602,0.0698846113486453
1.604,0.0816638351010097
1.606,0.0913155868504023
1.608,0.0857979419612579
1.61,0.0917557050458504
1.612,0.0917572695484769
1.614,0.10011431108849
1.616,0.105555024322632
1.618,0.117008495468173
1.62,0.122063390977709
1.622,0.116207691190969
1.624,0.110527855144975
1.626,0.0963782381959405
1.628,0.102173818653925
1.63,0.114021130325902
1.632,0.132536878290702
1.634,0.152566574875878
1.636,0.175951383175221
1.638,0.180847289364223
1.64,0.185267115137549
1.642,0.157943822180285
1.644,0.141070422297722
1.646,0.146167400805528
1.648,0.1803435175499
1.65,0.194999999999999
1.652,0.217698743101904
1.654,0.226193278969471
1.656,0.21744098779398
1.658,0.179416857594718
1.66,0.164732884862454
1.662,0.14679203086078
1.664,0.135537206733079
1.666,0.155072745349121
1.668,0.179420861057489
1.67,0.195978869674097
1.672,0.189783920694271
1.674,0.191261082029065
1.676,0.165960734763326
1.678,0.161431629034034
1.68,0.14793660902229
1.682,0.160352184306823
1.684,0.172956385769063
1.686,0.192246368686506
1.688,0.216284991103329
1.69,0.213244294954152
1.692,0.21724431869055
1.694,0.216045092924597
1.696,0.186847574990689
1.698,0.182476068426352
1.7,0.174999999999999
1.702,0.177523931573646
1.704,0.17315242500931
1.706,0.163954907075404
1.708,0.142755681309454
1.71,0.12675570504585
1.712,0.118715008896671
1.714,0.107753631313491
1.716,0.122043614230933
1.718,0.124647815693175
1.72,0.132063390977708
1.722,0.128568370965967
1.724,0.119039265236675
1.726,0.113738917970938
1.728,0.100216079305731
1.73,0.0990211303259029
1.732,0.0955791389425077
1.734,0.0999272546508752
1.736,0.0994627932669213
1.738,0.0732079691392211
1.74,0.0452671151375493
1.742,0.010583142405284
1.744,-0.0124409877939769
1.746,-0.0161932789694699
1.748,-0.012698743101905
1.75,-0.0100000000000018
1.752,0.0096564824500977
1.754,0.0038325991944726
1.756,-0.0110704222977196
1.758,-0.0429438221802793
1.76,-0.0552671151375475
1.762,-0.0808472893642219
1.764,-0.0709513831752231
1.766,-0.0475665748758795
1.768,-0.0225368782907049
1.77,-0.00402113032590344
1.772,0.00282618134607618
1.774,-0.0213782381959364
1.776,-0.0555278551449743
1.778,-0.0762076911909692
1.78,-0.0820633909777099
1.782,-0.0770084954681751
1.784,-0.065555024322633
1.786,-0.0551143110884917
1.788,-0.0367572695484767
1.79,-0.0267557050458494
1.792,-0.025797941961256
1.794,-0.0363155868504006
1.796,-0.0366638351010089
1.798,-0.044884611348646
1.8,-0.0150000000000014
1.802,0.00988461134864442
1.804,0.0216638351010092
1.806,0.0213155868504027
1.808,0.0207979419612578
1.81,0.0117557050458509
1.812,0.026757269548477
1.814,0.0451143110884897
1.816,0.0355550243226312
1.818,0.0420084954681731
1.82,0.0370633909777095
1.822,0.0212076911909691
1.824,0.00552785514497561
1.826,0.00137823819593853
1.828,0.00217381865392487
1.83,0.0090211303259027
1.832,0.0225368782907034
1.834,0.0375665748758771
1.836,0.030951383175222
1.838,0.0308472893642221
1.84,0.000267115137550518
1.842,-0.00205617781971733
1.844,-0.0139295777022788
1.846,-0.0138325991944725
1.848,0.0153435175499008
1.85,0.0349999999999999
1.852,0.0476987431019032
1.854,0.0511932789694702
1.856,0.0124409877939782
1.858,-0.0205831424052825
1.86,-0.0602671151375482
1.862,-0.0882079691392203
1.864,-0.0794627932669221
1.866,-0.0649272546508781
1.868,-0.0405791389425098
1.87,-0.0340211303259036
1.872,-0.0302160793057299
1.874,-0.0337389179709357
1.876,-0.0590392652366729
1.878,-0.0685683709659664
1.88,-0.0770633909777098
1.882,-0.0646478156931777
1.884,-0.0420436142309373
1.886,-0.0127536313134942
1.888,0.0112849911033291
1.89,0.0132442949541524
1.892,0.0122443186905503
1.894,0.00604509292459658
1.896,-0.0181524250093102
1.898,-0.027523931573649
1.9,-0.0200000000000019
1.902,-0.0174760684263551
1.904,-0.00684757499069007
1.906,0.00895490707540503
1.908,-0.00224431869054606
1.91,-0.00824429495414909
1.912,-0.00128499110332963
1.914,0.0127536313134902
1.916,0.0220436142309322
1.918,0.0296478156931748
1.92,0.042063390977708
1.922,0.0435683709659672
1.924,0.0440392652366745
1.926,0.043738917970939
1.928,0.0352160793057311
1.93,0.0340211303259029
1.932,0.0355791389425074
1.934,0.0449272546508746
1.936,0.0494627932669209
1.938,0.0382079691392211
1.94,0.0102671151375508
1.942,-0.0144168575947154
1.944,-0.032440987793976
1.946,-0.03619327896947
1.948,-0.0376987431019049
1.95,-0.0250000000000024
1.952,-0.0153435175499027
1.954,-0.0161674008055274
1.956,-0.0360704222977191
1.958,-0.0479438221802796
1.96,-0.0602671151375468
1.962,-0.0758472893642213
1.964,-0.0659513831752233
1.966,-0.04256657487588
1.968,-0.0175368782907057
1.97,-0.00402113032590363
1.972,-0.0121738186539236
1.974,-0.0313782381959358
1.976,-0.060527855144973
1.978,-0.081207691190969
1.98,-0.0920633909777104
1.982,-0.0920084954681757
1.984,-0.0655550243226338
1.986,-0.0501143110884915
1.988,-0.0417572695484767
1.99,-0.0367557050458489
1.992,-0.0407979419612554
1.994,-0.0563155868504013
1.996,-0.0666638351010088
1.998,-0.0548846113486469
2,-0.0450000000000019
2.002,-0.0201153886513582
2.004,-0.00333616489899168
2.006,0.0113155868504034
2.008,0.000797941961258479
2.01,0.00675570504585093
2.012,0.016757269548477
2.014,0.00511431108848841
2.016,0.000555024322630153
2.018,0.0120084954681713
2.02,0.0270633909777091
2.022,0.0162076911909703
2.024,-0.00447214485502391
2.026,-0.00862176180405815
2.028,-0.0178261813460749
2.03,-0.0159788696740978
2.032,0.0025368782907029
2.034,0.0125665748758762
2.036,0.0109513831752217
2.038,0.000847289364223562
2.04,-0.00973288486245043
2.042,-0.0170561778197149
2.044,-0.00892957770227827
2.046,-0.00883259919447133
2.048,0.000343517549900032
2.05,0.0199999999999976
2.052,0.0226987431019033
2.054,0.0161932789694706
2.056,0.00244098779397855
2.058,-0.0255831424052804
2.06,-0.0352671151375473
2.062,-0.0432079691392187
2.064,-0.0344627932669225
2.066,0.0100727453491204
2.068,0.0244208610574899
2.07,0.0459788696740964
2.072,0.0597839206942705
2.074,0.0512610820290665
2.076,0.0309607347633288
2.078,0.026431629034034
2.08,0.0379366090222908
2.082,0.0453521843068216
2.084,0.0829563857690647
2.086,0.107246368686506
2.088,0.12128499110333
2.09,0.128244294954153
2.092,0.122244318690549
2.094,0.116045092924597
2.096,0.126847574990689
2.098,0.142476068426352
2.1,0.144999999999998
2.102,0.147523931573644
2.104,0.16815242500931
2.106,0.178954907075405
2.108,0.182755681309453
2.11,0.176755705045851
2.112,0.163715008896672
2.114,0.16775363131349
2.116,0.182043614230934
2.118,0.214647815693174
2.12,0.227063390977709
2.122,0.223568370965968
2.124,0.229039265236676
2.126,0.218738917970939
2.128,0.21021607930573
2.13,0.204021130325903
2.132,0.205579138942509
2.134,0.204927254650875
2.136,0.19446279326692
2.138,0.168207969139222
2.14,0.150267115137547
2.142,0.115583142405286
2.144,0.0975590122060223
2.146,0.0938067210305304
2.148,0.0973012568980932
2.15,0.109999999999997
2.152,0.129656482450099
2.154,0.118832599194473
2.156,0.113929577702279
2.158,0.0970561778197212
2.16,0.0747328848624538
2.162,0.0541527106357785
2.164,0.0590486168247773
2.166,0.0724334251241198
2.168,0.0974631217092961
2.17,0.115978869674096
2.172,0.117826181346077
2.174,0.0886217618040647
2.176,0.0594721448550246
2.178,0.0287923088090322
2.18,0.0179366090222901
2.182,0.0229915045318234
2.184,0.0494449756773649
2.186,0.0798856889115081
2.188,0.088242730451523
2.19,0.088244294954152
2.192,0.0842020580387435
2.194,0.0486844131495991
2.196,0.0383361648989912
2.198,0.0451153886513533
2.2,0.0600000000000004
2.202,0.109884611348643
2.204,0.141663835101009
2.206,0.146315586850403
2.208,0.14579794196126
2.21,0.146755705045851
2.212,0.131757269548477
2.214,0.12511431108849
2.216,0.125555024322632
2.218,0.127008495468172
2.22,0.127063390977708
2.222,0.131207691190971
2.224,0.110527855144974
2.226,0.0963782381959395
2.228,0.0921738186539239
2.23,0.0790211303259025
2.232,0.0975368782907024
2.234,0.0775665748758761
2.236,0.0809513831752224
2.238,0.060847289364223
2.24,0.05526711513755
2.242,0.0629438221802831
2.244,0.0810704222977217
2.246,0.121167400805528
2.248,0.185343517549901
2.25,0.254999999999999
2.252,0.307698743101904
2.254,0.351193278969471
2.256,0.397440987793982
2.258,0.43441685759472
2.26,0.519732884862457
2.262,0.626792030860779
2.264,0.760537206733078
2.266,0.835072745349122
2.268,0.814420861057488
2.27,0.800978869674096
2.272,0.734783920694271
2.274,0.646261082029065
2.276,0.535960734763329
2.278,0.441431629034035
2.28,0.337936609022289
2.282,0.225352184306821
2.284,0.137956385769062
2.286,0.0522463686865068
2.288,0.021284991103329
2.29,0.0432442949541516
2.292,0.0372443186905518
2.294,0.0260450929245977
2.296,0.0368475749906889
2.298,0.0474760684263521
2.3,0.0749999999999977
2.302,0.107523931573645
2.304,0.138152425009309
2.306,0.143954907075406
2.308,0.127755681309455
2.31,0.12175570504585
2.312,0.108715008896671
2.314,0.102753631313492
2.316,0.10704361423093
2.318,0.124647815693174
2.32,0.147063390977708
2.322,0.168568370965967
2.324,0.169039265236676
2.326,0.158738917970938
2.328,0.160216079305731
2.33,0.169021130325902
2.332,0.170579138942507
2.334,0.164927254650875
2.336,0.149462793266921
2.338,0.128207969139221
2.34,0.115267115137552
2.342,0.105583142405285
2.344,0.102559012206026
2.346,0.08880672103053
2.348,0.0873012568980936
2.35,0.119999999999998
2.352,0.0996564824500967
2.354,0.0938325991944727
2.356,0.0839295777022819
2.358,0.0620561778197192
2.36,0.0647328848624538
2.362,0.0791527106357788
2.364,0.0940486168247763
2.366,0.112433425124119
2.368,0.132463121709294
2.37,0.145978869674097
2.372,0.127826181346077
2.374,0.0986217618040631
2.376,0.074472144855028
2.378,0.0537923088090314
2.38,0.0529366090222901
2.382,0.0779915045318249
2.384,0.0994449756773648
2.386,0.119885688911509
2.388,0.128242730451523
2.39,0.13324429495415
2.392,0.0942020580387459
2.394,0.0686844131495987
2.396,0.0683361648989897
2.398,0.0901153886513552
2.4,0.109999999999997
2.402,0.154884611348645
2.404,0.176663835101008
2.406,0.186315586850403
2.408,0.195797941961259
2.41,0.196755705045851
2.412,0.186757269548477
2.414,0.18011431108849
2.416,0.18555502432263
2.418,0.197008495468173
2.42,0.192063390977709
2.422,0.191207691190969
2.424,0.200527855144978
2.426,0.186378238195938
2.428,0.177173818653926
2.43,0.169021130325903
2.432,0.177536878290702
2.434,0.187566574875877
2.436,0.210951383175221
2.438,0.200847289364222
2.44,0.200267115137552
2.442,0.202943822180282
2.444,0.221070422297722
2.446,0.221167400805528
2.448,0.2353435175499
2.45,0.245
2.452,0.242698743101903
2.454,0.23619327896947
2.456,0.232440987793979
2.458,0.189416857594716
2.46,0.189732884862455
2.462,0.196792030860779
2.464,0.195537206733077
2.466,0.205072745349122
2.468,0.224420861057489
2.47,0.230978869674096
2.472,0.229783920694271
2.474,0.216261082029063
2.476,0.205960734763329
2.478,0.186431629034034
2.48,0.207936609022291
2.482,0.225352184306823
2.484,0.262956385769064
2.486,0.297246368686509
2.488,0.30628499110333
2.49,0.298244294954151
2.492,0.28724431869055
2.494,0.271045092924596
2.496,0.26184757499069
2.498,0.247476068426353
2.5,0.259999999999999
2.502,0.267523931573644
2.504,0.27815242500931
2.506,0.273954907075406
2.508,0.272755681309454
2.51,0.251755705045852
2.512,0.22371500889667
2.514,0.217753631313489
2.516,0.207043614230933
2.518,0.209647815693172
2.52,0.227063390977709
2.522,0.213568370965968
2.524,0.214039265236674
2.526,0.20873891797094
2.528,0.190216079305731
2.53,0.169021130325902
2.532,0.165579138942508
2.534,0.149927254650873
2.536,0.154462793266921
2.538,0.128207969139223
2.54,0.11526711513755
2.542,0.0855831424052872
2.544,0.0625590122060229
2.546,0.0388067210305309
2.548,0.0373012568980954
2.55,0.0149999999999958
2.552,0.0196564824500978
2.554,0.0138325991944727
2.556,0.00392957770228046
2.558,-0.0279438221802773
2.56,-0.0352671151375479
2.562,-0.0308472893642212
2.564,-0.0259513831752231
2.566,-0.0125665748758813
2.568,0.0224631217092947
2.57,0.0159788696740958
2.572,0.00282618134607604
2.574,-0.0263782381959336
2.576,-0.0555278551449736
2.578,-0.0812076911909675
2.58,-0.0770633909777105
2.582,-0.0670084954681769
2.584,-0.050555024322634
2.586,-0.0351143110884927
2.588,-0.0167572695484769
2.59,-0.0417557050458479
2.592,-0.0457979419612552
2.594,-0.0713155868504
2.596,-0.0966638351010095
2.598,-0.0648846113486496
2.6,-0.0350000000000006
2.602,0.0148846113486424
2.604,0.0416638351010086
2.606,0.0513155868504039
2.608,0.0457979419612586
2.61,0.0267557050458524
2.612,-0.00324273045152324
2.614,-0.00488568891151126
2.616,0.000555024322630514
2.618,0.0220084954681713
2.62,0.0220633909777087
2.622,0.0212076911909699
2.624,0.0155278551449754
2.626,0.00137823819594129
2.628,-0.00782618134607527
2.63,-0.0259788696740979
2.632,-0.0274631217092966
2.634,-0.0324334251241228
2.636,-0.0190486168247781
2.638,-0.00915271063577655
2.64,-0.0047328848624499
2.642,-0.0020561778197154
2.644,-0.00392957770227871
2.646,-0.0138325991944723
2.648,0.000343517549901053
2.65,-0.00500000000000251
2.652,-0.00230125689809704
2.654,-0.00880672103052893
2.656,-0.0375590122060225
2.658,-0.0655831424052816
2.66,-0.0752671151375484
2.662,-0.0932079691392187
2.664,-0.079462793266923
2.666,-0.0699272546508797
2.668,-0.0655791389425101
2.67,-0.0690211303259033
2.672,-0.0852160793057297
2.674,-0.0987389179709337
2.676,-0.114039265236672
2.678,-0.118568370965966
2.68,-0.107063390977709
2.682,-0.0596478156931775
2.684,-0.042043614230935
2.686,-0.0227536313134937
2.688,-0.00371500889666999
2.69,-0.0267557050458474
2.692,-0.0427556813094509
2.694,-0.0539549070754031
2.696,-0.0581524250093109
2.698,-0.0525239315736491
2.7,-0.0250000000000015
2.702,-0.0224760684263558
2.704,-0.0118475749906908
2.706,-0.0110450929245957
2.708,-0.0272443186905473
2.71,-0.053244294954149
2.712,-0.0712849911033291
2.714,-0.0622463686865094
2.716,-0.0479563857690652
2.718,-0.020352184306825
2.72,0.0170633909777084
2.722,0.0335683709659688
2.724,0.024039265236676
2.726,0.0187389179709388
2.728,0.0152160793057302
2.73,-0.00597886967409736
2.732,0.000579138942506531
2.734,-0.0100727453491271
2.736,-0.0105372067330803
2.738,-0.0117920308607792
2.74,-0.0197328848624528
2.742,-0.039416857594715
2.744,-0.0474409877939773
2.746,-0.0561932789694704
2.748,-0.057698743101906
2.75,-0.0650000000000031
2.752,-0.0703435175499041
2.754,-0.071167400805527
2.756,-0.0860704222977184
2.758,-0.0929438221802771
2.76,-0.0852671151375431
2.762,-0.0908472893642218
2.764,-0.0759513831752251
2.766,-0.0525665748758799
2.768,-0.0475368782907055
2.77,-0.0440211303259042
2.772,-0.0621738186539213
2.774,-0.0763782381959359
2.776,-0.10052785514497
2.778,-0.126207691190968
2.78,-0.12706339097771
2.782,-0.112008495468178
2.784,-0.0955550243226385
2.786,-0.0751143110884916
2.788,-0.0767572695484764
2.79,-0.0867557050458488
2.792,-0.105797941961256
2.794,-0.111315586850399
2.796,-0.12166383510101
2.798,-0.0898846113486478
2.8,-0.0550000000000051
2.802,-0.0151153886513557
2.804,0.00166383510100806
2.806,0.0163155868504038
2.808,0.00579794196126295
2.81,-0.0182442949541485
2.812,-0.0482427304515228
2.814,-0.0448856889115101
2.816,-0.0544449756773696
2.818,-0.0379915045318302
2.82,-0.00793660902229204
2.822,-0.00379230880902989
2.824,-0.00947214485502108
2.826,-0.028621761804061
2.828,-0.0528261813460746
2.83,-0.0709788696740982
2.832,-0.0724631217093012
2.834,-0.052433425124123
2.836,-0.0390486168247801
2.838,-0.0241527106357771
2.84,-0.0247328848624488
2.842,-0.0320561778197142
2.844,-0.0339295777022757
2.846,-0.0338325991944721
2.848,-0.0296564824501008
2.85,-0.0350000000000014
2.852,-0.0473012568980966
2.854,-0.0488067210305302
2.856,-0.0675590122060167
2.858,-0.0755831424052815
2.86,-0.0952671151375446
2.862,-0.108207969139221
2.864,-0.119462793266922
2.866,-0.0999272546508807
2.868,-0.110579138942514
2.87,-0.114021130325904
2.872,-0.125216079305729
2.874,-0.138738917970935
2.876,-0.149039265236672
2.878,-0.138568370965965
2.88,-0.112063390977711
2.882,-0.0696478156931777
2.884,-0.042043614230938
2.886,-0.0427536313134924
2.888,-0.0537150088966706
2.89,-0.0667557050458502
2.892,-0.087755681309447
2.894,-0.103954907075402
2.896,-0.118152425009311
2.898,-0.0975239315736486
2.9,-0.0700000000000017
2.902,-0.0474760684263525
2.904,-0.0268475749906908
2.906,-0.0260450929245955
2.908,-0.0572443186905446
2.91,-0.0782442949541498
2.912,-0.0862849911033294
2.914,-0.0872463686865076
2.916,-0.0679563857690714
2.918,-0.0303521843068252
2.92,-0.00293660902229183
2.922,0.00356837096596738
2.924,0.00403926523667576
2.926,-0.00126108202906413
2.928,-0.0247839206942676
2.93,-0.0359788696740977
2.932,-0.0294208610574935
2.934,-0.0250727453491243
2.936,-0.0105372067330794
2.938,-0.00679203086078049
2.94,-0.0197328848624471
2.942,-0.0444168575947151
2.944,-0.0574409877939755
2.946,-0.0661932789694707
2.948,-0.0926987431019056
2.95,-0.0999999999999997
2.952,-0.100343517549905
2.954,-0.0761674008055275
2.956,-0.0910704222977175
2.958,-0.0929438221802813
2.96,-0.0852671151375466
2.962,-0.0858472893642218
2.964,-0.085951383175225
2.966,-0.0675665748758807
2.968,-0.0625368782907063
2.97,-0.0690211303259032
2.972,-0.0771738186539231
2.974,-0.0863782381959397
2.976,-0.100527855144971
2.978,-0.111207691190969
2.98,-0.11206339097771
2.982,-0.107008495468175
2.984,-0.0805550243226354
2.986,-0.0751143110884898
2.988,-0.086757269548476
2.99,-0.0867557050458478
2.992,-0.0907979419612549
2.994,-0.111315586850401
2.996,-0.0966638351010094
2.998,-0.0648846113486432
3,-0.0350000000000062
3.002,0.00988461134863893
3.004,0.0216638351010086
3.006,0.0163155868504037
3.008,0.00579794196125957
3.01,-0.0182442949541484
3.012,-0.0232427304515235
3.014,-0.0198856889115134
3.016,-0.00944497567736999
3.018,0.0120084954681699
3.02,0.0370633909777081
3.022,0.0562076911909712
3.024,0.0455278551449752
3.026,0.0313782381959444
3.028,0.00217381865392541
3.03,-0.000978869674098257
3.032,-0.00746312170929798
3.034,0.00256657487587611
3.036,0.0159513831752227
3.038,0.0208472893642233
3.04,0.0302671151375514
3.042,0.0329438221802871
3.044,0.0560704222977214
3.046,0.0311674008055278
3.048,0.0153435175499019
3.05,0.0199999999999951
3.052,0.00269874310190235
3.054,-0.0188067210305291
3.056,-0.0275590122060208
3.058,-0.0355831424052794
3.06,-0.0602671151375483
3.062,-0.0832079691392182
3.064,-0.0894627932669231
3.066,-0.10492725465088
3.068,-0.105579138942511
3.07,-0.114021130325904
3.072,-0.12521607930573
3.074,-0.138738917970931
3.076,-0.149039265236671
3.078,-0.133568370965965
3.08,-0.12706339097771
3.082,-0.0946478156931795
3.084,-0.0620436142309339
3.086,-0.0527536313134955
3.088,-0.0587150088966701
3.09,-0.0717557050458464
3.092,-0.0827556813094508
3.094,-0.103954907075402
3.096,-0.10815242500931
3.098,-0.092523931573652
3.1,-0.0600000000000042
3.102,-0.0474760684263559
3.104,-0.0418475749906902
3.106,-0.0660450929245951
3.108,-0.0772443186905484
3.11,-0.0932442949541461
3.112,-0.116284991103329
3.114,-0.112246368686511
3.116,-0.0829563857690672
3.118,-0.040352184306827
3.12,-0.0179366090222903
3.122,-0.00143162903403236
3.124,0.00403926523667648
3.126,-0.0212610820290599
3.128,-0.044783920694269
3.13,-0.0609788696740977
3.132,-0.0644208610574903
3.134,-0.050072745349124
3.136,-0.0305372067330804
3.138,-0.0317920308607781
3.14,-0.0447328848624509
3.142,-0.0644168575947129
3.144,-0.0624409877939795
3.146,-0.10619327896947
3.148,-0.112698743101907
3.15,-0.110000000000003
3.152,-0.120343517549902
3.154,-0.126167400805528
3.156,-0.11607042229772
3.158,-0.11794382218028
3.16,-0.135267115137546
3.162,-0.140847289364221
3.164,-0.140951383175222
3.166,-0.147566574875882
3.168,-0.137536878290703
3.17,-0.124021130325903
3.172,-0.127173818653923
3.174,-0.106378238195934
3.176,-0.0555278551449742
3.178,-0.00620769119096813
3.18,0.0379366090222901
3.182,0.102991504531825
3.184,0.194444975677364
3.186,0.244885688911507
3.188,0.333242730451523
3.19,0.428244294954152
3.192,0.549202058038742
3.194,0.623684413149599
3.196,0.633336164898991
3.198,0.650115388651352
3.2,0.619999999999999
3.202,0.599884611348643
3.204,0.50666383510101
3.206,0.426315586850402
3.208,0.310797941961261
3.21,0.166755705045853
3.212,0.016757269548477
3.214,-0.0998856889115117
3.216,-0.139444975677367
3.218,-0.132991504531827
3.22,-0.092936609022292
3.222,-0.0837923088090298
3.224,-0.0744721448550252
3.226,-0.0686217618040593
3.228,-0.0678261813460764
3.23,-0.0709788696740972
3.232,-0.0674631217092987
3.234,-0.0374334251241247
3.236,-0.0140486168247772
3.238,-0.00915271063577666
3.24,0.000267115137547888
3.242,-0.00705617781971717
3.244,-0.0239295777022777
3.246,-0.0438325991944727
3.248,-0.0496564824500991
3.25,-0.0400000000000015
3.252,-0.0323012568980972
3.254,-0.0388067210305295
3.256,-0.037559012206019
3.258,-0.0505831424052795
3.26,-0.0652671151375426
3.262,-0.0932079691392206
3.264,-0.0894627932669213
3.266,-0.0999272546508777
3.268,-0.110579138942511
3.27,-0.0990211303259041
3.272,-0.105216079305728
3.274,-0.0887389179709346
3.276,-0.0990392652366712
3.278,-0.0835683709659655
3.28,-0.0670633909777112
3.282,-0.0546478156931786
3.284,-0.0320436142309391
3.286,-0.0277536313134937
3.288,-0.0337150088966703
3.29,-0.0317557050458492
3.292,-0.0577556813094504
3.294,-0.058954907075401
3.296,-0.0481524250093102
3.298,-0.0225239315736498
3.3,0.00499999999999677
3.302,0.0225239315736463
3.304,0.0181524250093091
3.306,-0.0110450929245942
3.308,-0.0272443186905445
3.31,-0.0432442949541489
3.312,-0.0762849911033294
3.314,-0.0422463686865075
3.316,0.00204361423093106
3.318,0.0246478156931739
3.32,0.052063390977708
3.322,0.0785683709659679
3.324,0.0690392652366771
3.326,0.0537389179709365
3.328,0.0352160793057311
3.33,0.0290211303259019
3.332,0.0305791389425057
3.334,0.0549272546508743
3.336,0.0544627932669214
3.338,0.0532079691392195
3.34,0.04526711513755
3.342,0.0355831424052871
3.344,0.0175590122060262
3.346,-0.0111932789694702
3.348,-0.0126987431019062
3.35,-0.0199999999999998
3.352,-0.000343517549902897
3.354,0.00383259919447258
3.356,0.0189295777022836
3.358,0.0220561778197212
3.36,0.0197328848624547
3.362,0.0241527106357776
3.364,0.034048616824777
3.366,0.0424334251241175
3.368,0.0524631217092924
3.37,0.0509788696740965
3.372,0.0628261813460779
3.374,0.0536217618040614
3.376,0.0644721448550262
3.378,0.0587923088090321
3.38,0.0579366090222894
3.382,0.0779915045318249
3.384,0.0894449756773641
3.386,0.0898856889115086
3.388,0.0882427304515237
3.39,0.0832442949541531
3.392,0.0842020580387464
3.394,0.093684413149599
3.396,0.113336164898991
3.398,0.145115388651355
3.4,0.164999999999997
3.402,0.199884611348643
3.404,0.206663835101008
3.406,0.216315586850403
3.408,0.22579794196126
3.41,0.21175570504585
3.412,0.201757269548477
3.414,0.225114311088488
3.416,0.240555024322629
3.418,0.262008495468173
3.42,0.252063390977709
3.422,0.266207691190967
3.424,0.230527855144977
3.426,0.211378238195941
3.428,0.192173818653926
3.43,0.169021130325903
3.432,0.172536878290701
3.434,0.192566574875879
3.436,0.220951383175222
3.438,0.210847289364222
3.44,0.210267115137552
3.442,0.192943822180284
3.444,0.186070422297723
3.446,0.136167400805528
3.448,0.135343517549901
3.45,0.139999999999997
3.452,0.132698743101901
3.454,0.13119327896947
3.456,0.122440987793981
3.458,0.094416857594715
3.46,0.0647328848624536
3.462,0.0367920308607791
3.464,0.0155372067330761
3.466,0.010072745349122
3.468,-0.000579138942512027
3.47,-0.014021130325903
3.472,-0.0352160793057296
3.474,-0.043738917970934
3.476,-0.0640392652366705
3.478,-0.0585683709659651
3.48,-0.0520633909777092
3.482,-0.0396478156931748
3.484,-0.0320436142309349
3.486,-0.0227536313134936
3.488,-0.0187150088966698
3.49,-0.0367557050458482
3.492,-0.0527556813094493
3.494,-0.0639549070754054
3.496,-0.0531524250093095
3.498,-0.0475239315736498
3.5,-0.0200000000000057
3.502,-0.00747606842635598
3.504,-0.0168475749906905
3.506,-0.0260450929245944
3.508,-0.0522443186905479
3.51,-0.0632442949541488
3.512,-0.0562849911033289
3.514,-0.0422463686865119
3.516,-0.0279563857690679
3.518,-0.0103521843068289
3.52,0.00206339097770949
3.522,0.00856837096596818
3.524,-0.0159607347633222
3.526,-0.0262610820290586
3.528,-0.0297839206942687
3.53,-0.0359788696740977
3.532,-0.0294208610574911
3.534,-0.00507274534912471
3.536,0.00446279326691876
3.538,-0.00179203086077701
3.54,-0.0147328848624501
3.542,-0.0344168575947119
3.544,-0.0624409877939769
3.546,-0.0861932789694698
3.548,-0.0926987431019072
3.55,-0.100000000000004
3.552,-0.0803435175499032
3.554,-0.0661674008055282
3.556,-0.0660704222977193
3.558,-0.0579438221802776
3.56,-0.0552671151375451
3.562,-0.0658472893642209
3.564,-0.0809513831752236
3.566,-0.0925665748758821
3.568,-0.0775368782907044
3.57,-0.0740211303259035
3.572,-0.0571738186539227
3.574,-0.0613782381959325
3.576,-0.0555278551449733
3.578,-0.0862076911909678
3.58,-0.0820633909777097
3.582,-0.077008495468176
3.584,-0.0805550243226363
3.586,-0.0851143110884933
3.588,-0.0917572695484766
3.59,-0.101755705045847
3.592,-0.105797941961257
3.594,-0.0913155868504011
3.596,-0.0816638351010088
3.598,-0.0648846113486492
3.6,-0.0250000000000027
3.602,0.0148846113486406
3.604,0.00666383510100867
3.606,0.00131558685040203
3.608,-0.00920205803873866
3.61,-0.0332442949541465
3.612,-0.0382427304515229
3.614,-0.0198856889115125
3.616,0.00555502432263196
3.618,0.0170084954681722
3.62,0.0370633909777084
3.622,0.0362076911909716
3.624,0.00552785514497579
3.626,-0.0186217618040576
3.628,-0.0428261813460759
3.63,-0.0509788696740972
3.632,-0.0424631217092997
3.634,-0.00743342512412578
3.636,0.00595138317522144
3.638,0.0108472893642227
3.64,0.010267115137548
3.642,0.0129438221802833
3.644,-0.0289295777022756
3.646,-0.0288325991944732
3.648,-0.0296564824500999
3.65,-0.0300000000000027
3.652,-0.00730125689809519
3.654,-0.00880672103052964
3.656,-0.0025590122060194
3.658,-0.0355831424052773
3.66,-0.0502671151375487
3.662,-0.0682079691392183
3.664,-0.0844627932669222
3.666,-0.0949272546508784
3.668,-0.0855791389425128
3.67,-0.0890211303259044
3.672,-0.0952160793057294
3.674,-0.0887389179709333
3.676,-0.089039265236674
3.678,-0.088568370965967
3.68,-0.0820633909777091
3.682,-0.0696478156931795
3.684,-0.0520436142309351
3.686,-0.0577536313134943
3.688,-0.0487150088966709
3.69,-0.0617557050458482
3.692,-0.0627556813094482
3.694,-0.0489549070754014
3.696,-0.048152425009311
3.698,-0.0225239315736488
3.7,-0.0250000000000014
3.702,-0.012476068426356
3.704,-0.0218475749906901
3.706,-0.0410450929245936
3.708,-0.0672443186905469
3.71,-0.0832442949541479
3.712,-0.0512849911033292
3.714,-0.0472463686865094
3.716,-0.0229563857690681
3.718,-0.00535218430682698
3.72,0.0270633909777096
3.722,0.0285683709659686
3.724,0.00903926523667424
3.726,-0.00626108202906217
3.728,-0.0247839206942685
3.73,-0.0309788696740981
3.732,-0.0194208610574926
3.734,-0.00507274534912568
3.736,0.00946279326692041
3.738,0.0132079691392204
3.74,0.00526711513754988
3.742,-0.0344168575947119
3.744,-0.0674409877939771
3.746,-0.0761932789694704
3.748,-0.0876987431019056
3.75,-0.090000000000001
3.752,-0.0553435175499026
3.754,-0.0461674008055273
3.756,-0.0410704222977172
3.758,-0.0479438221802773
3.76,-0.0752671151375441
3.762,-0.0808472893642219
3.764,-0.0909513831752235
3.766,-0.0775665748758829
3.768,-0.0725368782907086
3.77,-0.0640211303259039
3.772,-0.0671738186539216
3.774,-0.0763782381959375
3.776,-0.060527855144971
3.778,-0.0812076911909676
3.78,-0.0720633909777116
3.782,-0.0920084954681764
3.784,-0.100555024322637
3.786,-0.0951143110884909
3.788,-0.096757269548477
3.79,-0.106755705045846
3.792,-0.100797941961253
3.794,-0.0963155868504001
3.796,-0.0666638351010093
3.798,-0.0498846113486457
3.8,-0.0250000000000038
3.802,-0.00511538865135922
3.804,-0.00333616489899213
3.806,-0.00868441314959699
3.808,-0.0192020580387392
3.81,-0.0482442949541502
3.812,-0.0482427304515226
3.814,-0.0398856889115126
3.816,-0.0194449756773735
3.818,0.0170084954681717
3.82,0.022063390977708
3.822,-0.00379230880903009
3.824,-0.019472144855022
3.826,-0.0486217618040585
3.828,-0.0728261813460729
3.83,-0.0759788696740976
3.832,-0.0574631217093
3.834,-0.0224334251241222
3.836,0.000951383175221567
3.838,0.0158472893642234
3.84,0.000267115137552808
3.842,-0.0120561778197165
3.844,-0.0289295777022764
3.846,-0.0388325991944721
3.848,-0.0496564824501004
3.85,-0.0400000000000039
3.852,-0.0123012568980984
3.854,-0.00880672103053028
3.856,-0.0175590122060185
3.858,-0.0305831424052818
3.86,-0.0502671151375446
3.862,-0.0832079691392209
3.864,-0.0944627932669229
3.866,-0.0949272546508793
3.868,-0.0955791389425132
3.87,-0.0840211303259034
3.872,-0.090216079305729
3.874,-0.0737389179709326
3.876,-0.0540392652366691
3.878,-0.0535683709659665
3.88,-0.0370633909777116
3.882,-0.0096478156931757
3.884,0.0179563857690641
3.886,0.0322463686865058
3.888,0.0462849911033297
3.89,0.0332442949541528
3.892,0.0372443186905518
3.894,0.0310450929245965
3.896,0.0368475749906891
3.898,0.052476068426349
3.9,0.074999999999995
3.902,0.077523931573644
3.904,0.0731524250093092
3.906,0.0589549070754043
3.908,0.0427556813094532
3.91,0.0467557050458522
3.912,0.0537150088966714
3.914,0.0877536313134907
3.916,0.122043614230929
3.918,0.164647815693177
3.92,0.187063390977709
3.922,0.158568370965969
3.924,0.149039265236679
3.926,0.148738917970938
3.928,0.130216079305732
3.93,0.134021130325903
3.932,0.145579138942508
3.934,0.164927254650872
3.936,0.18446279326692
3.938,0.18820796913922
3.94,0.180267115137551
3.942,0.155583142405284
3.944,0.117559012206024
3.946,0.10880672103053
3.948,0.0923012568980918
3.95,0.104999999999998
3.952,0.114656482450096
3.954,0.128832599194472
3.956,0.133929577702282
3.958,0.132056177819723
3.96,0.134732884862457
3.962,0.119152710635778
3.964,0.129048616824776
3.966,0.142433425124121
3.968,0.147463121709295
3.97,0.155978869674096
3.972,0.157826181346079
3.974,0.138621761804063
3.976,0.129472144855028
3.978,0.128792308809031
3.98,0.10793660902229
3.982,0.107991504531823
3.984,0.119444975677362
3.986,0.129885688911508
3.988,0.113242730451523
3.99,0.0982442949541514
3.992,0.0992020580387443
3.994,0.0936844131496008
3.996,0.0933361648989902
3.998,0.110115388651355
4,0.129999999999996
4.002,0.13488461134864
4.004,0.151663835101007
4.006,0.141315586850405
4.008,0.130797941961262
4.01,0.126755705045854
4.012,0.131757269548478
4.014,0.15011431108849
4.016,0.165555024322631
4.018,0.172008495468171
4.02,0.167063390977707
4.022,0.156207691190968
4.024,0.125527855144979
4.026,0.101378238195943
4.028,0.0721738186539274
4.03,0.084021130325902
4.032,0.1125368782907
4.034,0.122566574875873
4.036,0.140951383175217
4.038,0.140847289364222
4.04,0.130267115137549
4.042,0.102943822180285
4.044,0.0810704222977246
4.046,0.0811674008055285
4.048,0.0653435175498993
4.05,0.0899999999999961
4.052,0.0976987431019024
4.054,0.106193278969469
4.056,0.0974409877939812
4.058,0.0894168575947237
4.06,0.0497328848624599
4.062,0.0117920308607779
4.064,0.000537206733076917
4.066,-0.00492725465087836
4.068,0.00442086105748719
4.07,0.0159788696740962
4.072,0.0297839206942712
4.074,0.0312610820290681
4.076,0.0259607347633315
4.078,0.0214316290340362
4.08,0.0129366090222888
4.082,0.025352184306817
4.084,0.047956385769057
4.086,0.0472463686865076
4.088,0.0762849911033294
4.09,0.0732442949541528
4.092,0.0622443186905509
4.094,0.0560450929245961
4.096,0.0418475749906905
4.098,0.0574760684263489
4.1,0.0599999999999937
4.102,0.0475239315736451
4.104,0.0481524250093085
4.106,0.053954907075407
4.108,0.0577556813094595
4.11,0.0767557050458494
4.112,0.118715008896671
4.114,0.182753631313489
4.116,0.252043614230928
4.118,0.329647815693177
4.12,0.387063390977709
4.122,0.458568370965969
4.124,0.559039265236678
4.126,0.653738917970939
4.128,0.745216079305732
4.13,0.794021130325901
4.132,0.800579138942504
4.134,0.794927254650875
4.136,0.75446279326692
4.138,0.668207969139223
4.14,0.550267115137554
4.142,0.440583142405285
4.144,0.312559012206024
4.146,0.163806721030529
4.148,0.0423012568980931
4.15,-0.0350000000000034
4.152,-0.0553435175499049
4.154,-0.0461674008055275
4.156,-0.0310704222977162
4.158,-0.00794382218028234
4.16,-0.0102671151375464
4.162,-0.0158472893642214
4.164,0.00404861682477681
4.166,0.0374334251241212
4.168,0.0774631217092939
4.17,0.0909788696740961
4.172,0.0978261813460788
4.174,0.103621761804063
4.176,0.0744721448550282
4.178,0.0387923088090327
4.18,0.0179366090222904
4.182,0.0179915045318262
4.184,0.0244449756773662
4.186,0.0398856889115075
4.188,0.0432427304515231
4.19,0.0532442949541524
4.192,0.0492020580387444
4.194,0.0586844131496008
4.196,0.0633361648989889
4.198,0.0851153886513536
4.2,0.0949999999999963
4.202,0.119884611348641
4.204,0.126663835101007
4.206,0.131315586850403
4.208,0.12579794196126
4.21,0.131755705045851
4.212,0.136757269548478
4.214,0.150114311088489
4.216,0.17055502432263
4.218,0.16200849546817
4.22,0.147063390977707
4.222,0.126207691190968
4.224,0.105527855144977
4.226,0.086378238195944
4.228,0.0771738186539275
4.23,0.0940211303259027
4.232,0.122536878290703
4.234,0.147566574875877
4.236,0.165951383175222
4.238,0.165847289364224
4.24,0.15026711513755
4.242,0.127943822180286
4.244,0.111070422297725
4.246,0.111167400805527
4.248,0.120343517549899
4.25,0.139999999999995
4.252,0.1526987431019
4.254,0.151193278969473
4.256,0.142440987793978
4.258,0.11941685759472
4.26,0.0697328848624562
4.262,0.0517920308607821
4.264,0.0605372067330768
4.266,0.0500727453491193
4.268,0.0644208610574864
4.27,0.0809788696740955
4.272,0.0897839206942714
4.274,0.0962610820290687
4.276,0.105960734763332
4.278,0.086431629034036
4.28,0.0829366090222926
4.282,0.0903521843068208
4.284,0.107956385769061
4.286,0.132246368686502
4.288,0.14128499110333
4.29,0.148244294954154
4.292,0.137244318690552
4.294,0.131045092924599
4.296,0.146847574990689
4.298,0.157476068426349
4.3,0.159999999999994
4.302,0.172523931573642
4.304,0.183152425009309
4.306,0.173954907075405
4.308,0.187755681309453
4.31,0.171755705045852
4.312,0.183715008896672
4.314,0.197753631313489
4.316,0.227043614230928
4.318,0.244647815693169
4.32,0.257063390977709
4.322,0.26356837096597
4.324,0.259039265236681
4.326,0.248738917970943
4.328,0.25521607930573
4.33,0.264021130325902
4.332,0.295579138942507
4.334,0.314927254650873
4.336,0.32946279326692
4.338,0.30820796913922
4.34,0.290267115137554
4.342,0.270583142405293
4.344,0.247559012206023
4.346,0.218806721030529
4.348,0.232301256898092
4.35,0.249999999999993
4.352,0.254656482450097
4.354,0.263832599194474
4.356,0.243929577702281
4.358,0.242056177819724
4.36,0.224732884862454
4.362,0.204152710635778
4.364,0.204048616824776
4.366,0.212433425124116
4.368,0.232463121709294
4.37,0.255978869674096
4.372,0.232826181346079
4.374,0.22362176180407
4.376,0.204472144855024
4.378,0.168792308809031
4.38,0.142936609022289
4.382,0.127991504531823
4.384,0.124444975677366
4.386,0.119885688911507
4.388,0.128242730451524
4.39,0.123244294954155
4.392,0.109202058038746
4.394,0.0886844131496017
4.396,0.0783361648989914
4.398,0.065115388651346
4.4,0.0850000000000009
4.402,0.0948846113486447
4.404,0.0916638351010077
4.406,0.0863155868504038
4.408,0.0857979419612594
4.41,0.0767557050458518
4.412,0.0667572695484781
4.414,0.0801143110884864
4.416,0.0855550243226297
4.418,0.08200849546817
4.42,0.0670633909777068
4.422,0.0462076911909722
4.424,0.0205278551449736
4.426,-0.00862176180406113
4.428,-0.0128261813460743
4.43,-0.0109788696740976
4.432,0.00753687829070224
4.434,0.0275665748758759
4.436,0.0409513831752212
4.438,0.0208472893642245
4.44,0.00526711513755196
4.442,-0.0220561778197137
4.444,-0.0489295777022754
4.446,-0.033832599194473
4.448,-0.0296564824500982
4.45,-1.72431513512095E-15
4.452,0.0126987431019018
4.454,0.0111932789694724
4.456,0.00244098779397609
4.458,-0.0305831424052797
4.46,-0.0852671151375439
4.462,-0.108207969139218
4.464,-0.134462793266924
4.466,-0.114927254650882
4.468,-0.100579138942515
4.47,-0.0740211303259048
4.472,-0.0702160793057303
4.474,-0.0787389179709349
4.476,-0.0840392652366713
4.478,-0.103568370965965
4.48,-0.117063390977708
4.482,-0.0946478156931773
4.484,-0.0720436142309391
4.486,-0.0627536313134975
4.488,-0.0487150088966695
4.49,-0.0417557050458453
4.492,-0.032755681309447
4.494,-0.0339549070754001
4.496,-0.0381524250093102
4.498,-0.04252393157365
4.5,-0.0400000000000021
4.502,-0.0374760684263551
4.504,-0.046847574990691
4.506,-0.0560450929245942
4.508,-0.0522443186905456
4.51,-0.0432442949541468
4.512,-0.0362849911033293
4.514,-0.0222463686865105
4.516,0.00204361423092793
4.518,0.00964781569316907
4.52,0.0120633909777049
4.522,0.0185683709659684
4.524,0.00903926523667702
4.526,0.00873891797094051
4.528,0.0152160793057322
4.53,0.0240211303259025
4.532,0.0305791389425063
4.534,0.0549272546508717
4.536,0.0494627932669196
4.538,0.0182079691392197
4.54,-0.0197328848624485
4.542,-0.0294168575947066
4.544,-0.07744098779397
4.546,-0.0661932789694716
4.548,-0.0776987431019057
4.55,-0.0550000000000035
4.552,-0.0203435175499053
4.554,-0.00116740080552685
4.556,-0.0310704222977173
4.558,-0.0629438221802755
4.56,-0.0752671151375428
4.562,-0.0808472893642217
4.564,-0.100951383175224
4.566,-0.067566574875885
4.568,-0.0425368782907107
4.57,-0.0240211303259033
4.572,-0.0271738186539229
4.574,-0.0263782381959342
4.576,-0.0505278551449691
4.578,-0.0862076911909687
4.58,-0.0920633909777115
4.582,-0.0970084954681796
4.584,-0.0905550243226384
4.586,-0.0801143110884926
4.588,-0.0667572695484759
4.59,-0.0717557050458439
4.592,-0.0857979419612515
4.594,-0.0713155868504002
4.596,-0.0816638351010078
4.598,-0.0698846113486483
4.6,-0.0550000000000082
4.602,-0.0451153886513574
4.604,-0.0283361648989917
4.606,-0.0136844131495952
4.608,-0.00420205803873764
4.61,-0.00324429495414728
4.612,-0.00324273045152216
4.614,0.0051143110884864
4.616,0.0155550243226255
4.618,0.0170084954681735
4.62,0.00706339097770808
4.622,-0.0237923088090295
4.624,-0.06447214485502
4.626,-0.0536217618040606
4.628,-0.0478261813460749
4.63,-0.050978869674098
4.632,-0.0324631217093022
4.634,-0.0124334251241249
4.636,-0.00404861682477934
4.638,-0.00915271063577562
4.64,-0.0247328848624446
4.642,-0.0520561778197158
4.644,-0.0589295777022783
4.646,-0.0438325991944733
4.648,-0.0396564824501009
4.65,-0.0300000000000029
4.652,-0.012301256898097
4.654,-0.00880672103052954
4.656,-0.0325590122060154
4.658,-0.0705831424052819
4.66,-0.105267115137544
4.662,-0.128207969139219
4.664,-0.139462793266924
4.666,-0.129927254650878
4.668,-0.085579138942512
4.67,-0.0840211303259038
4.672,-0.0802160793057285
4.674,-0.0837389179709343
4.676,-0.114039265236671
4.678,-0.118568370965965
4.68,-0.122063390977712
4.682,-0.114647815693174
4.684,-0.0920436142309374
4.686,-0.0577536313134974
4.688,-0.0537150088966705
4.69,-0.051755705045848
4.692,-0.0577556813094504
4.694,-0.0589549070754022
4.696,-0.0631524250093105
4.698,-0.07252393157365
4.7,-0.0800000000000046
4.702,-0.0574760684263573
4.704,-0.0568475749906906
4.706,-0.0460450929245963
4.708,-0.0522443186905445
4.71,-0.0732442949541459
4.712,-0.056284991103328
4.714,-0.0472463686865066
4.716,-0.0329563857690679
4.718,-0.0253521843068271
4.72,-0.00793660902229362
4.722,-0.0114316290340311
4.724,-0.0209607347633224
4.726,-0.0162610820290589
4.728,-0.0147839206942669
4.73,-0.0109788696740964
4.732,-0.00442086105749456
4.734,0.0149272546508707
4.736,-0.000537206733081191
4.738,-0.0117920308607816
4.74,-0.0397328848624522
4.742,-0.0744168575947132
4.744,-0.0924409877939731
4.746,-0.0911932789694722
4.748,-0.0876987431019067
4.75,-0.0750000000000046
4.752,-0.060343517549904
4.754,-0.0411674008055268
4.756,-0.0760704222977173
4.758,-0.0929438221802731
4.76,-0.0902671151375427
4.762,-0.125847289364222
4.764,-0.105951383175223
4.766,-0.0875665748758815
4.768,-0.0525368782907074
4.77,-0.0590211303259043
4.772,-0.0521738186539234
4.774,-0.0613782381959336
4.776,-0.105527855144969
4.778,-0.131207691190965
4.78,-0.13206339097771
4.782,-0.13700849546818
4.784,-0.130555024322641
4.786,-0.100114311088495
4.788,-0.0767572695484763
4.79,-0.0867557050458466
4.792,-0.0857979419612549
4.794,-0.0863155868503998
4.796,-0.0916638351010072
4.798,-0.0998846113486481
4.8,-0.0750000000000059
4.802,-0.0651153886513649
4.804,-0.0483361648989908
4.806,-0.0286844131495942
4.808,-0.0292020580387365
4.81,-0.0282442949541445
4.812,-0.0182427304515225
4.814,-0.0198856889115126
4.816,-0.0244449756773705
4.818,-0.0279915045318297
4.82,-0.017936609022292
4.822,-0.0237923088090292
4.824,-0.0294721448550196
4.826,-0.0486217618040545
4.828,-0.0628261813460767
4.83,-0.0659788696740984
4.832,-0.042463121709303
4.834,-0.0424334251241303
4.836,-0.0390486168247775
4.838,-0.0341527106357766
4.84,-0.0397328848624481
4.842,-0.0620561778197112
4.844,-0.0639295777022765
4.846,-0.0538325991944738
4.848,-0.0296564824501019
4.85,-0.0200000000000064
4.852,-0.00230125689809471
4.854,-0.00380672103053017
4.856,-0.0325590122060175
4.858,-0.065583142405271
4.86,-0.09026711513755
4.862,-0.10320796913922
4.864,-0.104462793266922
4.866,-0.094927254650881
4.868,-0.0805791389425128
4.87,-0.0540211303259042
4.872,-0.0402160793057276
4.874,-0.0537389179709305
4.876,-0.0740392652366741
4.878,-0.0835683709659645
4.88,-0.0770633909777122
4.882,-0.0546478156931848
4.884,-0.0170436142309332
4.886,-0.00775363131349351
4.888,0.0162849911033292
4.89,0.0182442949541548
4.892,0.00724431869055066
4.894,-0.0189549070754014
4.896,-0.0281524250093123
4.898,-0.0275239315736534
4.9,-0.0150000000000003
4.902,-0.0124760684263562
4.904,-0.00184757499069025
4.906,0.00395490707540961
4.908,0.012755681309452
4.91,-0.00824429495414861
4.912,-0.0162849911033283
4.914,-0.0322463686865118
4.916,-0.0279563857690663
4.918,-0.0203521843068274
4.92,-0.00793660902229353
4.922,-0.0164316290340313
4.924,-0.0209607347633259
4.926,-0.0212610820290625
4.928,-0.0247839206942667
4.93,-0.0109788696740989
4.932,0.000579138942507905
4.934,-0.00507274534912588
4.936,-0.00553720673307953
4.938,-0.0217920308607773
4.94,-0.0547328848624523
4.942,-0.0944168575947132
4.944,-0.0974409877939752
4.946,-0.0911932789694674
4.948,-0.0926987431019045
4.95,-0.0900000000000013
4.952,-0.065343517549905
4.954,-0.0661674008055273
4.956,-0.0860704222977202
4.958,-0.117943822180277
4.96,-0.140267115137544
4.962,-0.160847289364223
4.964,-0.145951383175223
4.966,-0.0975665748758823
4.968,-0.0875368782907082
4.97,-0.0690211303259047
4.972,-0.0621738186539252
4.974,-0.0963782381959387
4.976,-0.130527855144968
4.978,-0.161207691190965
4.98,-0.15706339097771
4.982,-0.142008495468176
4.984,-0.135555024322637
4.986,-0.115114311088494
4.988,-0.101757269548477
4.99,-0.106755705045846
4.992,-0.105797941961254
4.994,-0.126315586850399
4.996,-0.141663835101008
4.998,-0.124884611348645
5,-0.100000000000001
5.002,-0.0751153886513625
5.004,-0.0483361648989948
5.006,-0.0436844131495961
5.008,-0.0392020580387399
5.01,-0.0632442949541472
5.012,-0.0632427304515222
5.014,-0.0698856889115126
5.016,-0.0644449756773727
5.018,-0.0729915045318301
5.02,-0.087936609022292
5.022,-0.0937923088090309
5.024,-0.0794721448550233
5.026,-0.058621761804054
5.028,-0.0178261813460715
5.03,0.0340211303259027
5.032,0.097536878290701
5.034,0.142566574875873
5.036,0.215951383175219
5.038,0.285847289364223
5.04,0.360267115137552
5.042,0.447943822180289
5.044,0.566070422297727
5.046,0.64616740080553
5.048,0.660343517549901
5.05,0.664999999999992
5.052,0.622698743101901
5.054,0.546193278969469
5.056,0.437440987793979
5.058,0.324416857594722
5.06,0.20973288486246
5.062,0.0767920308607775
5.064,-0.039462793266923
5.066,-0.144927254650882
5.068,-0.210579138942516
5.07,-0.209021130325903
5.072,-0.185216079305729
5.074,-0.173738917970929
5.076,-0.184039265236667
5.078,-0.178568370965966
5.08,-0.162063390977711
5.082,-0.134647815693181
5.084,-0.0870436142309409
5.086,-0.0577536313134934
5.088,-0.0287150088966695
5.09,-0.0317557050458443
5.092,-0.0377556813094451
5.094,-0.0689549070754034
5.096,-0.0881524250093116
5.098,-0.0975239315736535
5.1,-0.0850000000000096
5.102,-0.0674760684263562
5.104,-0.0468475749906914
5.106,-0.0360450929245925
5.108,-0.0322443186905437
5.11,-0.0332442949541477
5.112,-0.0362849911033278
5.114,-0.0322463686865117
5.116,-0.00795638576907395
5.118,-0.0203521843068224
5.12,-0.017936609022292
5.122,-0.00643162903403272
5.124,-0.000960734763318739
5.126,-0.00126108202906186
5.128,-0.00978392069426839
5.13,0.00902113032590215
5.132,0.0155791389425048
5.134,0.0149272546508718
5.136,0.00946279326691969
5.138,0.00320796913922229
5.14,-0.0247328848624445
5.142,-0.0394168575947177
5.144,-0.0574409877939783
5.146,-0.0561932789694691
5.148,-0.0426987431019092
5.15,-0.0300000000000024
5.152,-0.0403435175499026
5.154,-0.0411674008055275
5.156,-0.0460704222977171
5.158,-0.0629438221802771
5.16,-0.0752671151375437
5.162,-0.0708472893642206
5.164,-0.0509513831752265
5.166,-0.0325665748758787
5.168,-0.012536878290704
5.17,0.0109788696740964
5.172,0.0028261813460799
5.174,-0.0363782381959382
5.176,-0.0655278551449736
5.178,-0.0912076911909662
5.18,-0.10206339097771
5.182,-0.0970084954681769
5.184,-0.060555024322637
5.186,-0.0401143110884942
5.188,-0.0217572695484761
5.19,-0.0117557050458502
5.192,-0.0257979419612571
5.194,-0.0463155868504007
5.196,-0.0466638351010125
5.198,-0.0398846113486444
5.2,-0.0100000000000013
5.202,0.029884611348641
5.204,0.0566638351010079
5.206,0.0663155868504062
5.208,0.0707979419612613
5.21,0.0817557050458537
5.212,0.0617572695484783
5.214,0.0501143110884898
5.216,0.0655550243226313
5.218,0.0820084954681703
5.22,0.0870633909777078
5.222,0.101207691190969
5.224,0.0955278551449772
5.226,0.0963782381959423
5.228,0.0871738186539267
5.23,0.109021130325902
5.232,0.1075368782907
5.234,0.102566574875874
5.236,0.110951383175218
5.238,0.110847289364222
5.24,0.11526711513755
5.242,0.117943822180285
5.244,0.126070422297724
5.246,0.131167400805529
5.248,0.1603435175499
5.25,0.179999999999996
5.252,0.187698743101903
5.254,0.186193278969472
5.256,0.157440987793979
5.258,0.134416857594722
5.26,0.0997328848624578
5.262,0.106792030860784
5.264,0.115537206733077
5.266,0.130072745349121
5.268,0.144420861057488
5.27,0.155978869674094
5.272,0.149783920694271
5.274,0.136261082029068
5.276,0.115960734763331
5.278,0.106431629034034
5.28,0.107936609022289
5.282,0.140352184306819
5.284,0.157956385769059
5.286,0.177246368686501
5.288,0.18128499110333
5.29,0.183244294954151
5.292,0.152244318690551
5.294,0.131045092924602
5.296,0.111847574990689
5.298,0.10247606842635
5.3,0.104999999999995
5.302,0.12252393157364
5.304,0.133152425009309
5.306,0.123954907075407
5.308,0.112755681309457
5.31,0.0967557050458551
5.312,0.0687150088966719
5.314,0.0627536313134908
5.316,0.0620436142309302
5.318,0.0546478156931663
5.32,0.0670633909777103
5.322,0.0785683709659678
5.324,0.0740392652366778
5.326,0.0637389179709418
5.328,0.0402160793057318
5.33,0.0540211303259018
5.332,0.060579138942504
5.334,0.034927254650869
5.336,0.0244627932669195
5.338,0.00820796913922105
5.34,-0.00473288486244643
5.342,-0.029416857594709
5.344,-0.0474409877939785
5.346,-0.0661932789694697
5.348,-0.0526987431019076
5.35,-0.0400000000000059
5.352,-0.0553435175499036
5.354,-0.056167400805528
5.356,-0.0760704222977171
5.358,-0.0929438221802725
5.36,-0.100267115137547
5.362,-0.08584728936422
5.364,-0.0809513831752229
5.366,-0.0775665748758841
5.368,-0.0525368782907047
5.37,-0.044021130325904
5.372,-0.0571738186539219
5.374,-0.086378238195932
5.376,-0.115527855144973
5.378,-0.136207691190968
5.38,-0.14206339097771
5.382,-0.13700849546818
5.384,-0.100555024322633
5.386,-0.0951143110884918
5.388,-0.0717572695484765
5.39,-0.0817557050458475
5.392,-0.100797941961255
5.394,-0.1213155868504
5.396,-0.131663835101012
5.398,-0.109884611348652
5.4,-0.0700000000000012
5.402,-0.0401153886513588
5.404,-0.0183361648989916
5.406,0.00631558685040662
5.408,-0.00420205803874139
5.41,-0.018244294954149
5.412,-0.0282427304515237
5.414,-0.0298856889115128
5.416,-0.0294449756773691
5.418,-0.0279915045318301
5.42,-0.0179366090222932
5.422,-0.00879230880902672
5.424,-0.0294721448550223
5.426,-0.0336217618040573
5.428,-0.0278261813460732
5.43,-0.0409788696740988
5.432,-0.0474631217092965
5.434,-0.032433425124127
5.436,-0.0190486168247778
5.438,-0.0191527106357768
5.44,-0.0247328848624457
5.442,-0.022056177819715
5.444,-0.0139295777022734
5.446,-0.0138325991944709
5.448,0.000343517549899279
5.45,-0.00500000000000079
5.452,-0.0273012568980982
5.454,-0.0338067210305283
5.456,-0.0525590122060239
5.458,-0.0755831424052776
5.46,-0.090267115137546
5.462,-0.0982079691392169
5.464,-0.0944627932669264
5.466,-0.0799272546508809
5.468,-0.0705791389425166
5.47,-0.0740211303259045
5.472,-0.0902160793057289
5.474,-0.0937389179709358
5.476,-0.109039265236668
5.478,-0.118568370965965
5.48,-0.107063390977707
5.482,-0.0796478156931814
5.484,-0.042043614230937
5.486,-0.0177536313134985
5.488,-0.00371500889666842
5.49,-0.0117557050458479
5.492,-0.0377556813094436
5.494,-0.0489549070753996
5.496,-0.0631524250093126
5.498,-0.0675239315736469
5.5,-0.0450000000000054
5.502,-0.0224760684263564
5.504,-0.0168475749906913
5.506,-0.0160450929245921
5.508,-0.0222443186905468
5.51,-0.0382442949541439
5.512,-0.0562849911033307
5.514,-0.0422463686865091
5.516,-0.0329563857690744
5.518,-0.0153521843068299
5.52,-0.00293660902229535
5.522,0.0235683709659685
5.524,0.0290392652366785
5.526,0.0187389179709382
5.528,0.0102160793057337
5.53,-0.0109788696740986
5.532,-0.00942086105749289
5.534,-0.00507274534913197
5.536,-0.000537206733080421
5.538,-0.0167920308607815
5.54,-0.0247328848624428
5.542,-0.039416857594709
5.544,-0.0574409877939689
5.546,-0.0661932789694701
5.548,-0.0576987431019086
5.55,-0.0600000000000025
5.552,-0.0703435175499063
5.554,-0.0661674008055285
5.556,-0.07607042229772
5.558,-0.0929438221802722
5.56,-0.100267115137544
5.562,-0.0958472893642201
5.564,-0.0809513831752259
5.566,-0.0675665748758836
5.568,-0.0525368782907132
5.57,-0.054021130325903
5.572,-0.0521738186539218
5.574,-0.0713782381959357
5.576,-0.105527855144967
5.578,-0.121207691190968
5.58,-0.122063390977711
5.582,-0.112008495468181
5.584,-0.0855550243226385
5.586,-0.0701143110884919
5.588,-0.0767572695484752
5.59,-0.0867557050458465
5.592,-0.0907979419612478
5.594,-0.1063155868504
5.596,-0.111663835101011
5.598,-0.0948846113486484
5.6,-0.0600000000000103
5.602,-0.0301153886513586
5.604,-0.0133361648989907
5.606,0.0013155868504076
5.608,-0.0142020580387384
5.61,-0.033244294954148
5.612,-0.0432427304515224
5.614,-0.0348856889115129
5.616,-0.0344449756773777
5.618,-0.0329915045318266
5.62,-0.0129366090222933
5.622,-0.00879230880903056
5.624,-0.0144721448550158
5.626,-0.0336217618040568
5.628,-0.042826181346075
5.63,-0.0559788696740991
5.632,-0.057463121709301
5.634,-0.0324334251241222
5.636,-0.0290486168247809
5.638,-0.0291527106357757
5.64,-0.0197328848624423
5.642,-0.0320561778197192
5.644,-0.0489295777022763
5.646,-0.0338325991944711
5.648,-0.0196564824501034
5.65,-0.0300000000000065
5.652,-0.0373012568980966
5.654,-0.0588067210305292
5.656,-0.0525590122060172
5.658,-0.0805831424052821
5.66,-0.0952671151375424
5.662,-0.0932079691392182
5.664,-0.104462793266926
5.666,-0.0999272546508774
5.668,-0.0855791389425141
5.67,-0.0940211303259035
5.672,-0.105216079305727
5.674,-0.128738917970931
5.676,-0.149039265236671
5.678,-0.143568370965963
5.68,-0.122063390977711
5.682,-0.0896478156931755
5.684,-0.0670436142309428
5.686,-0.047753631313496
5.688,-0.0437150088966694
5.69,-0.0617557050458506
5.692,-0.0627556813094471
5.694,-0.078954907075403
5.696,-0.0831524250093111
5.698,-0.0925239315736524
5.7,-0.065000000000001
5.702,-0.0424760684263597
5.704,-0.0268475749906906
5.706,-0.0310450929245963
5.708,-0.0422443186905412
5.71,-0.0632442949541466
5.712,-0.0762849911033293
5.714,-0.0672463686865066
5.716,-0.0579563857690702
5.718,-0.0353521843068261
5.72,-0.00793660902229386
5.722,0.0235683709659709
5.724,0.0190392652366768
5.726,0.013738917970943
5.728,0.000216079305731927
5.73,-0.00597886967409754
5.732,-0.0144208610574977
5.734,-7.27453491273233E-05
5.736,-0.0155372067330836
5.738,-0.0167920308607828
5.74,-0.0197328848624488
5.742,-0.0244168575947134
5.744,-0.057440987793972
5.746,-0.071193278969471
5.748,-0.0826987431019064
5.75,-0.0850000000000082
5.752,-0.0803435175499033
5.754,-0.0811674008055284
5.756,-0.101070422297715
5.758,-0.0929438221802765
5.76,-0.0902671151375399
5.762,-0.09084728936422
5.764,-0.075951383175224
5.766,-0.06256657487588
5.768,-0.0475368782907092
5.77,-0.064021130325904
5.772,-0.0621738186539236
5.774,-0.101378238195931
5.776,-0.11052785514497
5.778,-0.126207691190964
5.78,-0.10706339097771
5.782,-0.0820084954681791
5.784,-0.0505550243226433
5.786,-0.0301143110884945
5.788,-0.0417572695484756
5.79,-0.0567557050458492
5.792,-0.0807979419612511
5.794,-0.0963155868503999
5.796,-0.0866638351010083
5.798,-0.0598846113486515
5.8,-0.0200000000000057
5.802,0.0148846113486338
5.804,0.0416638351010102
5.806,0.0663155868504036
5.808,0.0307979419612672
5.81,0.0117557050458548
5.812,0.0167572695484766
5.814,0.0201143110884895
5.816,0.0255550243226263
5.818,0.0520084954681702
5.82,0.0820633909777079
5.822,0.0812076911909716
5.824,0.0755278551449786
5.826,0.0563782381959494
5.828,0.0521738186539236
5.83,0.0540211303259019
5.832,0.0775368782906943
5.834,0.0925665748758724
5.836,0.110951383175221
5.838,0.125847289364223
5.84,0.140267115137556
5.842,0.142943822180285
5.844,0.141070422297721
5.846,0.141167400805528
5.848,0.125343517549899
5.85,0.12999999999999
5.852,0.127698743101906
5.854,0.111193278969469
5.856,0.0924409877939876
5.858,0.0894168575947266
5.86,0.0647328848624539
5.862,0.0567920308607806
5.864,0.0455372067330753
5.866,0.0600727453491197
5.868,0.059420861057489
5.87,0.0659788696740947
5.872,0.0497839206942712
5.874,0.0462610820290727
5.876,0.0209607347633251
5.878,0.0214316290340351
5.88,0.0479366090222875
5.882,0.0653521843068172
5.884,0.102956385769063
5.886,0.122246368686507
5.888,0.12128499110333
5.89,0.0982442949541522
5.892,0.0872443186905495
5.894,0.0660450929246007
5.896,0.0468475749906878
5.898,0.0624760684263463
5.9,0.090000000000001
5.902,0.107523931573644
5.904,0.11315242500931
5.906,0.133954907075407
5.908,0.102755681309455
5.91,0.0817557050458506
5.912,0.0887150088966711
5.914,0.0827536313134883
5.916,0.087043614230934
5.918,0.10964781569317
5.92,0.142063390977708
5.922,0.163568370965971
5.924,0.159039265236673
5.926,0.138738917970941
5.928,0.140216079305734
5.93,0.124021130325901
5.932,0.130579138942506
5.934,0.124927254650876
5.936,0.129462793266918
5.938,0.128207969139222
5.94,0.110267115137547
5.942,0.0805831424052889
5.944,0.0725590122060249
5.946,0.0438067210305316
5.948,0.0423012568980959
5.95,0.0349999999999951
5.952,0.0346564824500924
5.954,0.0238325991944727
5.956,0.0189295777022839
5.958,0.0270561778197193
5.96,0.0447328848624566
5.962,0.099152710635779
5.964,0.179048616824778
5.966,0.237433425124115
5.968,0.297463121709294
5.97,0.365978869674094
5.972,0.412826181346074
5.974,0.478621761804065
5.976,0.559472144855034
5.978,0.678792308809034
5.98,0.792936609022288
5.982,0.812991504531824
5.984,0.819444975677359
5.986,0.779885688911508
5.988,0.703242730451524
5.99,0.603244294954155
5.992,0.504202058038746
5.994,0.378684413149604
5.996,0.273336164898993
5.998,0.180115388651354
6,0.0899999999999875
6.002,0.0348846113486374
6.004,0.0516638351010059
6.006,0.0863155868504016
6.008,0.0707979419612638
6.01,0.071755705045852
6.012,0.0767572695484769
6.014,0.100114311088486
6.016,0.13055502432263
6.018,0.167008495468166
6.02,0.177063390977708
6.022,0.18120769119097
6.024,0.165527855144975
6.026,0.136378238195944
6.028,0.112173818653931
6.03,0.104021130325903
6.032,0.102536878290697
6.034,0.107566574875876
6.036,0.125951383175218
6.038,0.140847289364224
6.04,0.140267115137553
6.042,0.132943822180292
6.044,0.136070422297724
6.046,0.131167400805528
6.048,0.120343517549901
6.05,0.124999999999996
6.052,0.132698743101898
6.054,0.111193278969469
6.056,0.102440987793983
6.058,0.0944168575947221
6.06,0.0697328848624616
6.062,0.056792030860781
6.064,0.055537206733077
6.066,0.0650727453491144
6.068,0.0594208610574859
6.07,0.0559788696740958
6.072,0.0547839206942702
6.074,0.0362610820290691
6.076,0.0359607347633365
6.078,0.0464316290340337
6.08,0.062936609022289
6.082,0.085352184306821
6.084,0.117956385769056
6.086,0.147246368686506
6.088,0.14128499110333
6.09,0.118244294954157
6.092,0.102244318690554
6.094,0.0960450929245987
6.096,0.0968475749906885
6.098,0.117476068426347
6.1,0.124999999999987
6.102,0.157523931573645
6.104,0.17815242500931
6.106,0.163954907075405
6.108,0.13775568130946
6.11,0.111755705045855
6.112,0.108715008896671
6.114,0.117753631313487
6.116,0.137043614230926
6.118,0.174647815693173
6.12,0.202063390977709
6.122,0.228568370965969
6.124,0.234039265236685
6.126,0.213738917970937
6.128,0.200216079305733
6.13,0.204021130325902
6.132,0.210579138942502
6.134,0.204927254650871
6.136,0.20446279326692
6.138,0.208207969139222
6.14,0.190267115137555
6.142,0.165583142405284
6.144,0.14755901220602
6.146,0.118806721030531
6.148,0.137301256898088
6.15,0.155000000000001
6.152,0.154656482450095
6.154,0.148832599194473
6.156,0.163929577702287
6.158,0.167056177819726
6.16,0.164732884862453
6.162,0.18415271063578
6.164,0.184048616824774
6.166,0.207433425124118
6.168,0.222463121709297
6.17,0.240978869674095
6.172,0.227826181346081
6.174,0.20862176180406
6.176,0.209472144855031
6.178,0.203792308809032
6.18,0.202936609022288
6.182,0.23799150453182
6.184,0.244444975677363
6.186,0.239885688911504
6.188,0.238242730451524
6.19,0.263244294954153
6.192,0.274202058038742
6.194,0.253684413149602
6.196,0.258336164898988
6.198,0.275115388651358
6.2,0.309999999999994
6.202,0.349884611348643
6.204,0.361663835101007
6.206,0.371315586850406
6.208,0.35579794196126
6.21,0.346755705045857
6.212,0.331757269548477
6.214,0.330114311088488
6.216,0.345555024322632
6.218,0.367008495468169
6.22,0.367063390977706
6.222,0.361207691190968
6.224,0.34052785514498
6.226,0.311378238195941
6.228,0.287173818653928
6.23,0.269021130325901
6.232,0.247536878290701
6.234,0.247566574875871
6.236,0.255951383175219
6.238,0.260847289364223
6.24,0.255267115137549
6.242,0.232943822180288
6.244,0.206070422297723
6.246,0.171167400805529
6.248,0.160343517549897
6.25,0.159999999999999
6.252,0.1626987431019
6.254,0.126193278969471
6.256,0.11244098779398
6.258,0.0844168575947245
6.26,0.0847328848624579
6.262,0.0517920308607853
6.264,0.0405372067330787
6.266,0.0250727453491178
6.268,0.00442086105748905
6.27,-0.00402113032590529
6.272,-0.0152160793057272
6.274,-0.0337389179709332
6.276,-0.0540392652366671
6.278,-0.0435683709659665
6.28,-0.0370633909777095
6.282,-0.0196478156931832
6.284,0.0129563857690597
6.286,0.0172463686865004
6.288,0.00128499110333044
6.29,-0.0267557050458459
6.292,-0.0327556813094497
6.294,-0.0339549070753984
6.296,-0.0331524250093114
6.298,-0.0225239315736492
6.3,-1.07211971505511E-14
6.302,0.0175239315736434
6.304,0.0231524250093091
6.306,-0.00604509292459163
6.308,-0.0272443186905438
6.31,-0.053244294954142
6.312,-0.0512849911033295
6.314,-0.0372463686865102
6.316,-0.0129563857690677
6.318,0.00964781569316615
6.32,0.0420633909777078
6.322,0.0485683709659674
6.324,0.0490392652366812
6.326,0.0137389179709408
6.328,-0.00478392069426828
6.33,-0.00597886967409933
6.332,-0.00942086105749449
6.334,-7.27453491320904E-05
6.336,0.0294627932669213
6.338,0.0282079691392207
6.34,0.0102671151375514
6.342,-0.0194168575947068
6.344,-0.0524409877939753
6.346,-0.0811932789694705
6.348,-0.0926987431019098
6.35,-0.0900000000000027
6.352,-0.0853435175499029
6.354,-0.0761674008055283
6.356,-0.0660704222977158
6.358,-0.0579438221802692
6.36,-0.0652671151375481
6.362,-0.0658472893642213
6.364,-0.0759513831752238
6.366,-0.077566574875887
6.368,-0.0775368782907075
6.37,-0.0890211303259037
6.372,-0.0871738186539204
6.374,-0.0813782381959337
6.376,-0.0955278551449748
6.378,-0.0962076911909655
6.38,-0.10206339097771
6.382,-0.0820084954681832
6.384,-0.0805550243226331
6.386,-0.0851143110884935
6.388,-0.0867572695484766
6.39,-0.0917557050458445
6.392,-0.110797941961252
6.394,-0.101315586850402
6.396,-0.0916638351010109
6.398,-0.0598846113486499
6.4,-0.030000000000001
6.402,-0.000115388651360085
6.404,0.0116638351010095
6.406,0.00131558685040595
6.408,-0.00920205803874291
6.41,-0.0282442949541461
6.412,-0.0382427304515238
6.414,-0.0248856889115146
6.416,-0.00444497567737238
6.418,0.0170084954681708
6.42,0.0220633909777077
6.422,0.0212076911909718
6.424,-0.014472144855024
6.426,-0.0336217618040547
6.428,-0.0428261813460737
6.43,-0.0509788696740999
6.432,-0.0474631217092953
6.434,-0.0174334251241257
6.436,0.00595138317522127
6.438,-0.00415271063577685
6.44,-0.00473288486244668
6.442,-0.0320561778197162
6.444,-0.0639295777022721
6.446,-0.0888325991944709
6.448,-0.0896564824501
6.45,-0.0750000000000067
6.452,-0.0623012568980978
6.454,-0.0538067210305296
6.456,-0.0675590122060236
6.458,-0.06058314240528
6.46,-0.0802671151375481
6.462,-0.103207969139216
6.464,-0.109462793266925
6.466,-0.124927254650878
6.468,-0.125579138942516
6.47,-0.124021130325904
6.472,-0.135216079305729
6.474,-0.123738917970928
6.476,-0.124039265236669
6.478,-0.113568370965964
6.48,-0.102063390977708
6.482,-0.0896478156931795
6.484,-0.0720436142309361
6.486,-0.0727536313134971
6.488,-0.0687150088966682
6.49,-0.0817557050458487
6.492,-0.0927556813094441
6.494,-0.0939549070754025
6.496,-0.0981524250093107
6.498,-0.0875239315736526
6.5,-0.0750000000000064
6.502,-0.0474760684263621
6.504,-0.0568475749906893
6.506,-0.076045092924595
6.508,-0.0872443186905472
6.51,-0.0932442949541447
6.512,-0.10628499110333
6.514,-0.0972463686865077
6.516,-0.0629563857690735
6.518,-0.0453521843068279
6.52,-0.0329366090222965
6.522,-0.016431629034028
6.524,-0.0259607347633205
6.526,-0.051261082029053
6.528,-0.0897839206942671
6.53,-0.0759788696740983
6.532,-0.069420861057492
6.534,-0.04007274534913
6.536,-0.0305372067330804
6.538,-0.0367920308607805
6.54,-0.0447328848624449
6.542,-0.0694168575947113
6.544,-0.0974409877939686
6.546,-0.10619327896947
6.548,-0.132698743101908
6.55,-0.135000000000008
6.552,-0.125343517549906
6.554,-0.116167400805527
6.556,-0.106070422297717
6.558,-0.112943822180276
6.56,-0.115267115137547
6.562,-0.12084728936422
6.564,-0.120951383175225
6.566,-0.117566574875881
6.568,-0.107536878290711
6.57,-0.114021130325905
6.572,-0.122173818653922
6.574,-0.126378238195929
6.576,-0.150527855144968
6.578,-0.146207691190967
6.58,-0.137063390977709
6.582,-0.13200849546818
6.584,-0.125555024322637
6.586,-0.13011431108849
6.588,-0.141757269548475
6.59,-0.136755705045847
6.592,-0.155797941961249
6.594,-0.156315586850397
6.596,-0.156663835101008
6.598,-0.124884611348651
6.6,-0.100000000000012
6.602,-0.0701153886513566
6.604,-0.0533361648989897
6.606,-0.0636844131495946
6.608,-0.0692020580387392
6.61,-0.0882442949541488
6.612,-0.0782427304515225
6.614,-0.0548856889115122
6.616,-0.0494449756773778
6.618,-0.0279915045318315
6.62,-0.0379366090222911
6.622,-0.043792308809026
6.624,-0.0644721448550176
6.626,-0.10862176180406
6.628,-0.117826181346076
6.63,-0.125978869674099
6.632,-0.0924631217093005
6.634,-0.0674334251241208
6.636,-0.0690486168247799
6.638,-0.0641527106357757
6.64,-0.049732884862441
6.642,-0.0570561778197115
6.644,-0.078929577702275
6.646,-0.103832599194472
6.648,-0.0896564824501027
6.65,-0.0850000000000033
6.652,-0.0923012568980955
6.654,-0.0738067210305299
6.656,-0.0825590122060169
6.658,-0.0955831424052866
6.66,-0.120267115137542
6.662,-0.138207969139217
6.664,-0.154462793266924
6.666,-0.164927254650884
6.668,-0.155579138942513
6.67,-0.154021130325906
6.672,-0.150216079305728
6.674,-0.123738917970932
6.676,-0.129039265236672
6.678,-0.128568370965963
6.68,-0.11206339097771
6.682,-0.0846478156931757
6.684,-0.0870436142309407
6.686,-0.0777536313134946
6.688,-0.0687150088966708
6.69,-0.071755705045844
6.692,-0.0877556813094475
6.694,-0.0939549070753988
6.696,-0.088152425009311
6.698,-0.0825239315736515
6.7,-0.0550000000000043
6.702,-0.0324760684263566
6.704,-0.0368475749906887
6.706,-0.0510450929245971
6.708,-0.0622443186905423
6.71,-0.0732442949541474
6.712,-0.0562849911033283
6.714,-0.05224636868651
6.716,-0.00795638576906933
6.718,-0.000352184306832093
6.72,0.0470633909777073
6.722,0.0285683709659684
6.724,0.0190392652366741
6.726,-0.00126108202905797
6.728,-0.0147839206942682
6.73,-0.0259788696740973
6.732,-0.00942086105749613
6.734,0.00992725465087478
6.736,0.0144627932669182
6.738,0.00320796913921944
6.74,0.000267115137549068
6.742,-0.0644168575947089
6.744,-0.10744098779397
6.746,-0.121193278969472
6.748,-0.127698743101906
6.75,-0.135000000000005
6.752,-0.135343517549903
6.754,-0.116167400805527
6.756,-0.0910704222977159
6.758,-0.127943822180278
6.76,-0.145267115137541
6.762,-0.15584728936422
6.764,-0.150951383175225
6.766,-0.132566574875887
6.768,-0.117536878290709
6.77,-0.129021130325907
6.772,-0.122173818653925
6.774,-0.116378238195931
6.776,-0.15552785514497
6.778,-0.146207691190963
6.78,-0.152063390977713
6.782,-0.162008495468178
6.784,-0.150555024322644
6.786,-0.145114311088492
6.788,-0.151757269548477
6.79,-0.166755705045843
6.792,-0.175797941961252
6.794,-0.161315586850396
6.796,-0.151663835101009
6.798,-0.139884611348649
6.8,-0.105000000000005
6.802,-0.100115388651364
6.804,-0.0933361648989912
6.806,-0.0836844131495979
6.808,-0.0892020580387343
6.81,-0.103244294954146
6.812,-0.103242730451524
6.814,-0.079885688911516
6.816,-0.064444975677372
6.818,-0.0479915045318347
6.82,-0.0529366090222921
6.822,-0.0637923088090299
6.824,-0.0994721448550231
6.826,-0.118621761804054
6.828,-0.132826181346073
6.83,-0.135978869674098
6.832,-0.147463121709305
6.834,-0.122433425124126
6.836,-0.0940486168247799
6.838,-0.0891527106357755
6.84,-0.104732884862447
6.842,-0.137056177819707
6.844,-0.173929577702276
6.846,-0.168832599194473
6.848,-0.154656482450101
6.85,-0.105000000000007
6.852,-0.0323012568981006
6.854,0.0211932789694684
6.856,0.0574409877939839
6.858,0.0944168575947264
6.86,0.144732884862454
6.862,0.191792030860781
6.864,0.270537206733075
6.866,0.380072745349113
6.868,0.469420861057491
6.87,0.515978869674095
6.872,0.514783920694271
6.874,0.476261082029072
6.876,0.420960734763331
6.878,0.351431629034033
6.88,0.302936609022286
6.882,0.215352184306817
6.884,0.117956385769065
6.886,-0.00775363131349558
6.888,-0.103715008896672
6.89,-0.186755705045841
6.892,-0.217755681309452
6.894,-0.228954907075402
6.896,-0.208152425009312
6.898,-0.177523931573655
6.9,-0.160000000000007
6.902,-0.137476068426355
6.904,-0.10684757499069
6.906,-0.0910450929245941
6.908,-0.107244318690545
6.91,-0.0982442949541446
6.912,-0.101284991103329
6.914,-0.0822463686865152
6.916,-0.0629563857690633
6.918,-0.0403521843068305
6.92,-0.0279366090222935
6.922,-0.0264316290340318
6.924,-0.0459607347633191
6.926,-0.0662610820290602
6.928,-0.0747839206942653
6.93,-0.0759788696740983
6.932,-0.0494208610574927
6.934,-0.0400727453491319
6.936,-0.035537206733082
6.938,-0.0217920308607763
6.94,-0.0497328848624524
6.942,-0.0844168575947113
6.944,-0.107440987793975
6.946,-0.116193278969469
6.948,-0.13269874310191
6.95,-0.110000000000002
6.952,-0.0753435175499075
6.954,-0.0811674008055286
6.956,-0.0860704222977169
6.958,-0.0879438221802708
6.96,-0.0952671151375402
6.962,-0.110847289364221
6.964,-0.125951383175221
6.966,-0.117566574875883
6.968,-0.107536878290705
6.97,-0.0890211303259055
6.972,-0.067173818653922
6.974,-0.0763782381959365
6.976,-0.0905278551449674
6.978,-0.0812076911909671
6.98,-0.112063390977709
6.982,-0.122008495468181
6.984,-0.110555024322638
6.986,-0.105114311088496
6.988,-0.0967572695484784
6.99,-0.101755705045845
6.992,-0.100797941961256
6.994,-0.1013155868504
6.996,-0.091663835101007
6.998,-0.0648846113486438
7,-0.0550000000000077
7.002,-0.0251153886513584
7.004,-0.00333616489899494
7.006,-0.00868441314959267
7.008,-0.019202058038737
7.01,-0.00824429495414322
7.012,-0.00324273045152317
7.014,0.000114311088487706
7.016,0.0205550243226302
7.018,0.0320084954681667
7.02,0.022063390977708
7.022,0.0162076911909706
7.024,0.000527855144983484
7.026,-0.018621761804056
7.028,-0.0378261813460702
7.03,-0.0359788696740996
7.032,0.00253687829070038
7.034,0.0425665748758673
7.036,0.0559513831752167
7.038,0.0608472893642256
7.04,0.045267115137552
7.042,0.037943822180291
7.044,0.0210704222977271
7.046,0.0161674008055279
7.048,0.0253435175498954
7.05,0.0399999999999966
7.052,0.052698743101898
7.054,0.0461932789694688
7.056,0.0474409877939827
7.058,0.0444168575947288
7.06,0.0297328848624614
7.062,0.00179203086077771
7.064,0.000537206733078818
7.066,0.00507274534911768
7.068,0.0244208610574874
7.07,0.0609788696740961
7.072,0.074783920694274
7.074,0.0662610820290694
7.076,0.0459607347633338
7.078,0.0614316290340376
7.08,0.0679366090222902
7.082,0.075352184306814
7.084,0.0879563857690576
7.086,0.117246368686506
7.088,0.121284991103329
7.09,0.133244294954156
7.092,0.122244318690553
7.094,0.116045092924597
7.096,0.12684757499069
7.098,0.137476068426351
7.1,0.134999999999988
7.102,0.142523931573639
7.104,0.148152425009308
7.106,0.128954907075411
7.108,0.112755681309459
7.11,0.121755705045853
7.112,0.123715008896671
7.114,0.132753631313489
7.116,0.147043614230929
7.118,0.169647815693175
7.12,0.172063390977708
7.122,0.148568370965969
7.124,0.134039265236684
7.126,0.113738917970943
7.128,0.100216079305732
7.13,0.0940211303258999
7.132,0.0955791389425042
7.134,0.0849272546508702
7.136,0.0994627932669215
7.138,0.0832079691392246
7.14,0.0552671151375553
7.142,-0.00441685759471792
7.144,-0.037440987793974
7.146,-0.0561932789694708
7.148,-0.057698743101911
7.15,-0.0500000000000074
7.152,-0.0403435175499045
7.154,-0.0361674008055259
7.156,-0.0310704222977138
7.158,-0.0629438221802772
7.16,-0.085267115137546
7.162,-0.11584728936422
7.164,-0.120951383175225
7.166,-0.10256657487588
7.168,-0.0875368782907102
7.17,-0.0640211303259045
7.172,-0.0721738186539188
7.174,-0.0813782381959331
7.176,-0.0905278551449729
7.178,-0.126207691190963
7.18,-0.147063390977709
7.182,-0.16700849546818
7.184,-0.140555024322636
7.186,-0.140114311088495
7.188,-0.141757269548478
7.19,-0.136755705045848
7.192,-0.13579794196125
7.194,-0.1363155868504
7.196,-0.116663835101011
7.198,-0.0848846113486491
7.2,-0.0950000000000054
7.202,-0.0751153886513637
7.204,-0.0833361648989944
7.206,-0.0686844131495933
7.208,-0.0742020580387411
7.21,-0.0682442949541459
7.212,-0.0732427304515228
7.214,-0.0698856889115113
7.216,-0.0494449756773765
7.218,-0.0379915045318319
7.22,-0.0429366090222913
7.222,-0.0587923088090293
7.224,-0.0694721448550221
7.226,-0.0986217618040526
7.228,-0.102826181346073
7.23,-0.0909788696740985
7.232,-0.0724631217092971
7.234,-0.0524334251241278
7.236,-0.0390486168247796
7.238,-0.0541527106357776
7.24,-0.0647328848624464
7.242,-0.0820561778197154
7.244,-0.108929577702272
7.246,-0.113832599194472
7.248,-0.104656482450102
7.25,-0.0750000000000091
7.252,-0.067301256898099
7.254,-0.0638067210305264
7.256,-0.0575590122060223
7.258,-0.105583142405278
7.26,-0.130267115137545
7.262,-0.143207969139214
7.264,-0.164462793266926
7.266,-0.16492725465088
7.268,-0.135579138942518
7.27,-0.109021130325905
7.272,-0.110216079305728
7.274,-0.118738917970927
7.276,-0.129039265236668
7.278,-0.148568370965963
7.28,-0.157063390977711
7.282,-0.139647815693184
7.284,-0.11704361423094
7.286,-0.1077536313135
7.288,-0.0987150088966693
7.29,-0.0817557050458467
7.292,-0.0927556813094411
7.294,-0.0839549070753999
7.296,-0.0881524250093113
7.298,-0.0875239315736549
7.3,-0.0950000000000094
7.302,-0.0974760684263644
7.304,-0.0818475749906912
7.306,-0.0860450929245924
7.308,-0.0922443186905449
7.31,-0.103244294954145
7.312,-0.0912849911033282
7.314,-0.0772463686865101
7.316,-0.0329563857690774
7.318,-0.0253521843068319
7.32,-0.0279366090222887
7.322,-0.0264316290340308
7.324,-0.0509607347633215
7.326,-0.0662610820290529
7.328,-0.0597839206942688
7.33,-0.055978869674099
7.332,-0.0394208610574934
7.334,-0.0100727453491327
7.336,-0.000537206733083564
7.338,-0.0117920308607788
7.34,-0.0597328848624433
7.342,-0.109416857594709
7.344,-0.112440987793975
7.346,-0.12619327896947
7.348,-0.132698743101909
7.35,-0.105000000000011
7.352,-0.0853435175499028
7.354,-0.0811674008055275
7.356,-0.0810704222977185
7.358,-0.107943822180273
7.36,-0.13526711513754
7.362,-0.155847289364219
7.364,-0.155951383175226
7.366,-0.137566574875886
7.368,-0.107536878290706
7.37,-0.0790211303259062
7.372,-0.0921738186539213
7.374,-0.106378238195927
7.376,-0.105527855144975
7.378,-0.146207691190967
7.38,-0.17206339097771
7.382,-0.167008495468183
7.384,-0.155555024322639
7.386,-0.150114311088491
7.388,-0.141757269548476
7.39,-0.126755705045845
7.392,-0.140797941961252
7.394,-0.141315586850398
7.396,-0.116663835101012
7.398,-0.119884611348657
7.4,-0.109999999999999
7.402,-0.100115388651358
7.404,-0.0783361648989917
7.406,-0.0536844131495928
7.408,-0.0742020580387347
7.41,-0.0782442949541487
7.412,-0.0732427304515222
7.414,-0.0498856889115139
7.416,-0.0544449756773706
7.418,-0.0429915045318342
7.42,-0.0529366090222923
7.422,-0.0787923088090254
7.424,-0.0844721448550239
7.426,-0.108621761804055
7.428,-0.117826181346074
7.43,-0.1109788696741
7.432,-0.0974631217093011
7.434,-0.0724334251241229
7.436,-0.0640486168247808
7.438,-0.0641527106357774
7.44,-0.0847328848624476
7.442,-0.0970561778197085
7.444,-0.113929577702273
7.446,-0.113832599194471
7.448,-0.0946564824500977
7.45,-0.0750000000000057
7.452,-0.0673012568980974
7.454,-0.0638067210305281
7.456,-0.0875590122060178
7.458,-0.11558314240528
7.46,-0.150267115137539
7.462,-0.168207969139217
7.464,-0.199462793266926
7.466,-0.189927254650887
7.468,-0.165579138942514
7.47,-0.159021130325907
7.472,-0.150216079305729
7.474,-0.153738917970929
7.476,-0.15403926523667
7.478,-0.178568370965962
7.48,-0.18706339097771
7.482,-0.169647815693178
7.484,-0.132043614230943
7.486,-0.122753631313496
7.488,-0.0937150088966703
7.49,-0.0967557050458421
7.492,-0.0977556813094453
7.494,-0.108954907075398
7.496,-0.128152425009313
7.498,-0.117523931573652
7.5,-0.105000000000003
7.502,-0.102476068426359
7.504,-0.116847574990691
7.506,-0.131045092924596
7.508,-0.11224431869054
7.51,-0.108244294954147
7.512,-0.121284991103329
7.514,-0.0972463686865112
7.516,-0.0779563857690714
7.518,-0.0703521843068339
7.52,-0.057936609022293
7.522,-0.0564316290340302
7.524,-0.0709607347633232
7.526,-0.0912610820290552
7.528,-0.0847839206942669
7.53,-0.075978869674098
7.532,-0.0544208610574975
7.534,-0.0450727453491279
7.536,-0.0505372067330835
7.538,-0.0517920308607805
7.54,-0.0697328848624447
7.542,-0.0894168575947025
7.544,-0.137440987793969
7.546,-0.131193278969472
7.548,-0.107698743101906
7.55,-0.100000000000007
7.552,-0.0703435175499055
7.554,-0.0711674008055263
7.556,-0.0760704222977138
7.558,-0.102943822180275
7.56,-0.130267115137536
7.562,-0.140847289364221
7.564,-0.145951383175226
7.566,-0.12756657487589
7.568,-0.0825368782907107
7.57,-0.0490211303259052
7.572,-0.0521738186539224
7.574,-0.0613782381959293
7.576,-0.0855278551449685
7.578,-0.11620769119097
7.58,-0.127063390977714
7.582,-0.107008495468178
7.584,-0.105555024322643
7.586,-0.0851143110884953
7.588,-0.086757269548477
7.59,-0.0717557050458407
7.592,-0.0757979419612494
7.594,-0.0763155868503982
7.596,-0.086663835101009
7.598,-0.0848846113486532
7.6,-0.0650000000000076
7.602,-0.0401153886513567
7.604,-0.0333361648989932
7.606,-0.0286844131495961
7.608,-0.0342020580387317
7.61,-0.043244294954144
7.612,-0.0232427304515219
7.614,-0.039885688911515
7.616,-0.0544449756773748
7.618,-0.0429915045318328
7.62,-0.052936609022294
7.622,-0.0637923088090293
7.624,-0.0994721448550175
7.626,-0.09362176180406
7.628,-0.102826181346072
7.63,-0.115978869674099
7.632,-0.0974631217093056
7.634,-0.0774334251241295
7.636,-0.0690486168247808
7.638,-0.0741527106357746
7.64,-0.0997328848624442
7.642,-0.117056177819715
7.644,-0.118929577702278
7.646,-0.123832599194473
7.648,-0.1096564824501
7.65,-0.0950000000000024
7.652,-0.0723012568981025
7.654,-0.0688067210305271
7.656,-0.0925590122060111
7.658,-0.130583142405278
7.66,-0.155267115137545
7.662,-0.173207969139219
7.664,-0.209462793266926
7.666,-0.184927254650882
7.668,-0.165579138942512
7.67,-0.154021130325905
7.672,-0.175216079305728
7.674,-0.168738917970934
7.676,-0.169039265236667
7.678,-0.173568370965966
7.68,-0.172063390977714
7.682,-0.169647815693172
7.684,-0.15204361423094
7.686,-0.132753631313499
7.688,-0.113715008896671
7.69,-0.0967557050458448
7.692,-0.112755681309449
7.694,-0.123954907075401
7.696,-0.153152425009309
7.698,-0.147523931573651
7.7,-0.15000000000001
7.702,-0.147476068426358
7.704,-0.141847574990693
7.706,-0.131045092924597
7.708,-0.147244318690543
7.71,-0.178244294954143
7.712,-0.161284991103329
7.714,-0.13724636868651
7.716,-0.0979563857690691
7.718,-0.0403521843068323
7.72,0.0170633909777055
7.722,0.0635683709659706
7.724,0.0890392652366836
7.726,0.14373891797094
7.728,0.195216079305735
7.73,0.279021130325903
7.732,0.390579138942505
7.734,0.469927254650865
7.736,0.559462793266916
7.738,0.53820796913922
7.74,0.500267115137549
7.742,0.405583142405291
7.744,0.337559012206026
7.746,0.258806721030529
7.748,0.212301256898091
7.75,0.154999999999996
7.752,0.0746564824500909
7.754,-0.0311674008055263
7.756,-0.146070422297719
7.758,-0.242943822180272
7.76,-0.260267115137542
7.762,-0.24584728936422
7.764,-0.215951383175222
7.766,-0.172566574875885
7.768,-0.142536878290707
7.77,-0.109021130325906
7.772,-0.097173818653921
7.774,-0.101378238195934
7.776,-0.110527855144966
7.778,-0.146207691190966
7.78,-0.162063390977711
7.782,-0.177008495468184
7.784,-0.160555024322641
7.786,-0.150114311088498
7.788,-0.136757269548477
7.79,-0.126755705045843
7.792,-0.120797941961255
7.794,-0.121315586850398
7.796,-0.126663835101007
7.798,-0.124884611348652
7.8,-0.120000000000014
7.802,-0.100115388651364
7.804,-0.0683361648989905
7.806,-0.0736844131495909
7.808,-0.0742020580387344
7.81,-0.0682442949541413
7.812,-0.0632427304515229
7.814,-0.054885688911514
7.816,-0.0594449756773727
7.818,-0.047991504531836
7.82,-0.0329366090222933
7.822,-0.0437923088090288
7.824,-0.0494721448550146
7.826,-0.0736217618040538
7.828,-0.0878261813460736
7.83,-0.0859788696741003
7.832,-0.0574631217093031
7.834,-0.0524334251241348
7.836,-0.0440486168247771
7.838,-0.0341527106357734
7.84,-0.0447328848624454
7.842,-0.0770561778197083
7.844,-0.078929577702273
7.846,-0.0638325991944719
7.848,-0.044656482450104
7.85,-0.0450000000000058
7.852,-0.0373012568980995
7.854,-0.0338067210305293
7.856,-0.0225590122060161
7.858,-0.0355831424052691
7.86,-0.0502671151375462
7.862,-0.0532079691392179
7.864,-0.0444627932669229
7.866,-0.014927254650885
7.868,-0.00557913894251725
7.87,0.035978869674096
7.872,0.0447839206942738
7.874,0.0362610820290694
7.876,0.0309607347633317
7.878,0.0314316290340391
7.88,0.0129366090222899
7.882,0.0403521843068122
7.884,0.0829563857690656
7.886,0.102246368686504
7.888,0.131284991103329
7.89,0.143244294954158
7.892,0.142244318690555
7.894,0.111045092924598
7.896,0.116847574990689
7.898,0.117476068426346
7.9,0.114999999999992
7.902,0.147523931573648
7.904,0.163152425009309
7.906,0.193954907075412
7.908,0.192755681309453
7.91,0.166755705045855
7.912,0.173715008896672
7.914,0.187753631313485
7.916,0.197043614230928
7.918,0.224647815693174
7.92,0.237063390977706
7.922,0.24856837096597
7.924,0.254039265236678
7.926,0.263738917970938
7.928,0.250216079305733
7.93,0.259021130325899
7.932,0.295579138942509
7.934,0.30992725465087
7.936,0.30946279326692
7.938,0.313207969139225
7.94,0.280267115137551
7.942,0.270583142405286
7.944,0.247559012206031
7.946,0.258806721030531
7.948,0.247301256898092
7.95,0.284999999999999
7.952,0.294656482450094
7.954,0.288832599194474
7.956,0.27892957770228
7.958,0.247056177819726
7.96,0.239732884862457
7.962,0.239152710635781
7.964,0.249048616824774
7.966,0.272433425124118
7.968,0.312463121709288
7.97,0.290978869674095
7.972,0.317826181346076
7.974,0.288621761804063
7.976,0.264472144855033
7.978,0.228792308809038
7.98,0.202936609022288
7.982,0.217991504531817
7.984,0.219444975677361
7.986,0.239885688911506
7.988,0.243242730451524
7.99,0.233244294954154
7.992,0.224202058038751
7.994,0.193684413149602
7.996,0.173336164898992
7.998,0.200115388651354
8,0.209999999999992
8.002,0.204884611348648
8.004,0.216663835101006
8.006,0.216315586850406
8.008,0.210797941961269
8.01,0.216755705045856
8.012,0.186757269548478
8.014,0.175114311088482
8.016,0.165555024322624
8.018,0.167008495468174
8.02,0.157063390977707
8.022,0.161207691190967
8.024,0.140527855144992
8.026,0.11637823819595
8.028,0.132173818653924
8.03,0.109021130325899
8.032,0.112536878290701
8.034,0.107566574875878
8.036,0.105951383175219
8.038,0.105847289364223
8.04,0.100267115137558
8.042,0.0829438221802896
8.044,0.0860704222977259
8.046,0.0811674008055282
8.048,0.0803435175498977
8.05,0.0849999999999953
8.052,0.0926987431018991
8.054,0.086193278969469
8.056,0.0574409877939906
8.058,0.0244168575947286
8.06,-0.000267115137544849
8.062,-0.0332079691392136
8.064,-0.0244627932669265
8.066,-0.00492725465087528
8.068,0.00442086105747962
8.07,0.0309788696740971
8.072,0.0297839206942757
8.074,0.00126108202907554
8.076,-0.0090392652366736
8.078,-0.0235683709659611
8.08,-0.0270633909777109
8.082,-0.00464781569317288
8.084,0.0329563857690579
8.086,0.0522463686865069
8.088,0.0812849911033283
8.09,0.0882442949541553
8.092,0.0522443186905507
8.094,0.0310450929246013
8.096,0.021847574990688
8.098,0.0174760684263493
8.1,0.0399999999999921
8.102,0.0325239315736421
8.104,0.0581524250093091
8.106,0.0639549070754088
8.108,0.0527556813094593
8.11,0.0517557050458574
8.112,0.0337150088966723
8.114,0.0327536313134963
8.116,0.0520436142309205
8.118,0.0646478156931753
8.12,0.0820633909777022
8.122,0.0935683709659668
8.124,0.0990392652366766
8.126,0.0987389179709497
8.128,0.0952160793057324
8.13,0.104021130325902
8.132,0.0955791389425057
8.134,0.0999272546508723
8.136,0.0894627932669199
8.138,0.0732079691392213
8.14,0.0502671151375491
8.142,0.0205831424052949
8.144,0.00255901220602605
8.146,0.00380672103052494
8.148,0.0123012568980909
8.15,0.0299999999999958
8.152,0.0296564824500935
8.154,0.0188325991944728
8.156,0.00892957770228508
8.158,-0.0179438221802696
8.16,-0.0252671151375437
8.162,-0.0308472893642199
8.164,-0.005951383175229
8.166,0.0124334251241225
8.168,0.0374631217092833
8.17,0.0359788696740958
8.172,0.0328261813460758
8.174,-0.00137823819592204
8.176,-0.025527855144973
8.178,-0.0512076911909694
8.18,-0.0670633909777117
8.182,-0.0570084954681761
8.184,-0.0255550243226442
8.186,-0.0151143110884946
8.188,-0.0167572695484772
8.19,-0.00675570504584334
8.192,-0.0257979419612512
8.194,-0.0413155868503947
8.196,-0.0566638351010138
8.198,-0.0148846113486471
8.2,0.00499999999998342
8.202,0.0198846113486405
8.204,0.0466638351010128
8.206,0.0563155868504042
8.208,0.0607979419612659
8.21,0.0317557050458478
8.212,0.0367572695484781
8.214,0.0151143110884908
8.216,0.000555024322621389
8.218,0.00700849546817016
8.22,0.00706339097770921
8.222,0.0212076911909752
8.224,0.020527855144978
8.226,0.0113782381959357
8.228,0.0121738186539275
8.23,-0.0309788696740975
8.232,0.00753687829069643
8.234,0.0125665748758723
8.236,0.0259513831752217
8.238,0.0108472893642219
8.24,0.0102671151375568
8.242,-0.0170561778197145
8.244,-0.0239295777022709
8.246,-0.00383259919447291
8.248,0.00534351754989268
8.25,-5.88071258356138E-15
8.252,-0.00230125689809932
8.254,-0.0138067210305284
8.256,-0.0175590122060165
8.258,-0.0555831424052627
8.26,-0.095267115137539
8.262,-0.0732079691392187
8.264,-0.0594627932669264
8.266,-0.0799272546508781
8.268,-0.0655791389425109
8.27,-0.0240211303259075
8.272,-0.0752160793057278
8.274,-0.0887389179709207
8.276,-0.119039265236671
8.278,-0.113568370965964
8.28,-0.0920633909777152
8.282,-0.0896478156931792
8.284,-0.0520436142309361
8.286,-0.0477536313134982
8.288,-0.0287150088966697
8.29,-0.0217557050458419
8.292,-0.032755681309443
8.294,-0.0639549070754021
8.296,-0.0631524250093144
8.298,-0.0725239315736541
8.3,-0.0800000000000081
8.302,-0.0324760684263613
8.304,-0.0218475749906914
8.306,-0.0310450929245903
8.308,-0.0372443186905384
8.31,-0.0382442949541508
8.312,-0.0762849911033286
8.314,-0.0672463686865074
8.316,-0.0379563857690623
8.318,-0.030352184306841
8.32,-0.0179366090222905
8.322,-0.00643162903402952
8.324,0.00403926523667955
8.326,-0.00626108202906134
8.328,-0.0197839206942653
8.33,-0.010978869674098
8.332,-0.0194208610574942
8.334,-0.0200727453491305
8.336,-0.0155372067330817
8.338,-0.0317920308607761
8.34,-0.0597328848624413
8.342,-0.0694168575947138
8.344,-0.0824409877939673
8.346,-0.0961932789694725
8.348,-0.092698743101912
8.35,-0.0950000000000076
8.352,-0.0853435175499057
8.354,-0.0861674008055272
8.356,-0.0860704222977118
8.358,-0.122943822180283
8.36,-0.12026711513754
8.362,-0.12084728936422
8.364,-0.110951383175222
8.366,-0.0775665748758829
8.368,-0.0675368782907057
8.37,-0.0790211303259081
8.372,-0.092173818653921
8.374,-0.121378238195938
8.376,-0.145527855144967
8.378,-0.161207691190965
8.38,-0.157063390977712
8.382,-0.127008495468179
8.384,-0.105555024322641
8.386,-0.0851143110884972
8.388,-0.0767572695484768
8.39,-0.0867557050458442
8.392,-0.115797941961248
8.394,-0.111315586850398
8.396,-0.101663835101009
8.398,-0.0898846113486546
8.4,-0.0550000000000074
8.402,-0.0151153886513713
8.404,-0.0033361648989909
8.406,0.00631558685040259
8.408,-0.00420205803873116
8.41,-0.0182442949541494
8.412,-0.0432427304515231
8.414,-0.0498856889115118
8.416,-0.0394449756773701
8.418,-0.0129915045318411
8.42,0.0320633909777092
8.422,0.0212076911909679
8.424,0.00552785514498447
8.426,-0.0136217618040581
8.428,0.00217381865392459
8.43,-0.0109788696740986
8.432,-0.0124631217093006
8.434,-0.012433425124133
8.436,-0.00404861682478174
8.438,-0.00415271063577861
8.44,-0.00473288486243978
8.442,-0.0020561778197099
8.444,-0.0189295777022741
8.446,-0.0238325991944728
8.448,-0.0146564824501051
8.45,0.0149999999999907
8.452,-0.00730125689810072
8.454,-0.0188067210305317
8.456,-0.0525590122060098
8.458,-0.110583142405285
8.46,-0.120267115137554
8.462,-0.133207969139214
8.464,-0.139462793266923
8.466,-0.13492725465089
8.468,-0.125579138942514
8.47,-0.129021130325904
8.472,-0.140216079305726
8.474,-0.163738917970932
8.476,-0.179039265236668
8.478,-0.198568370965964
8.48,-0.187063390977711
8.482,-0.144647815693187
8.484,-0.132043614230944
8.486,-0.0977536313134929
8.488,-0.0937150088966706
8.49,-0.0867557050458428
8.492,-0.102755681309445
8.494,-0.133954907075399
8.496,-0.148152425009313
8.498,-0.147523931573658
8.5,-0.120000000000013
8.502,-0.102476068426351
8.504,-0.0868475749906879
8.506,-0.0910450929245974
8.508,-0.102244318690534
8.51,-0.128244294954148
8.512,-0.151284991103328
8.514,-0.137246368686517
8.516,-0.112956385769072
8.518,-0.105352184306822
8.52,-0.0729366090222948
8.522,-0.0464316290340323
8.524,-0.0509607347633175
8.526,-0.0812610820290577
8.528,-0.0747839206942667
8.53,-0.0709788696740991
8.532,-0.0794208610574973
8.534,-0.0850727453491297
8.536,-0.0805372067330817
8.538,-0.106792030860781
8.54,-0.0947328848624336
8.542,-0.114416857594705
8.544,-0.142440987793974
8.546,-0.17619327896947
8.548,-0.147698743101913
8.55,-0.164999999999997
8.552,-0.170343517549908
8.554,-0.181167400805528
8.556,-0.171070422297709
8.558,-0.217943822180278
8.56,-0.220267115137546
8.562,-0.180847289364218
8.564,-0.125951383175225
8.566,-0.0675665748758792
8.568,0.00246312170928979
8.57,0.0509788696740951
8.572,0.0678261813460822
8.574,0.103621761804068
8.576,0.154472144855028
8.578,0.228792308809039
8.58,0.332936609022288
8.582,0.452991504531823
8.584,0.479444975677355
8.586,0.479885688911505
8.588,0.443242730451524
8.59,0.353244294954159
8.592,0.289202058038753
8.594,0.203684413149602
8.596,0.113336164898987
8.598,0.0351153886513599
8.6,-0.0600000000000165
8.602,-0.110115388651352
8.604,-0.163336164898995
8.606,-0.173684413149597
8.608,-0.164202058038741
8.61,-0.178244294954147
8.612,-0.168242730451523
8.614,-0.134885688911509
8.616,-0.104444975677377
8.618,-0.0779915045318307
8.62,-0.0729366090222907
8.622,-0.0587923088090282
8.624,-0.0544721448550209
8.626,-0.0786217618040519
8.628,-0.102826181346072
8.63,-0.115978869674098
8.632,-0.107463121709305
8.634,-0.0924334251241267
8.636,-0.0790486168247852
8.638,-0.0691527106357784
8.64,-0.0747328848624428
8.642,-0.0570561778197053
8.644,-0.108929577702271
8.646,-0.0938325991944734
8.648,-0.0696564824501078
8.65,-0.0899999999999991
8.652,-0.117301256898102
8.654,-0.0988067210305291
8.656,-0.117559012206023
8.658,-0.125583142405276
8.66,-0.145267115137546
8.662,-0.133207969139224
8.664,-0.124462793266923
8.666,-0.12492725465088
8.668,-0.125579138942517
8.67,-0.134021130325905
8.672,-0.140216079305727
8.674,-0.143738917970928
8.676,-0.174039265236666
8.678,-0.173568370965963
8.68,-0.142063390977715
8.682,-0.12964781569318
8.684,-0.0820436142309514
8.686,-0.0377536313134981
8.688,-0.0537150088966686
8.69,-0.03675570504584
8.692,-0.0827556813094408
8.694,-0.0789549070754089
8.696,-0.118152425009314
8.698,-0.117523931573648
8.7,-0.0950000000000176
8.702,-0.0674760684263547
8.704,-0.05184757499069
8.706,-0.0460450929245945
8.708,-0.0772443186905467
8.71,-0.0882442949541489
8.712,-0.0862849911033292
8.714,-0.0572463686865072
8.716,-0.0779563857690801
8.718,-0.0353521843068291
8.72,0.00206339097770965
8.722,0.0285683709659676
8.724,0.029039265236681
8.726,0.0187389179709399
8.728,0.00521607930573513
8.73,-0.00597886967409876
8.732,0.00557913894249954
8.734,0.00992725465086751
8.736,0.014462793266913
8.738,0.00820796913922646
8.74,0.000267115137558595
8.742,-0.00441685759472272
8.744,-0.0124409877939677
8.746,-0.0211932789694732
8.748,-0.0276987431019148
8.75,-0.0350000000000009
8.752,-0.030343517549901
8.754,-0.0311674008055276
8.756,-0.0260704222977176
8.758,-0.0229438221802645
8.76,-0.0452671151375427
8.762,-0.0208472893642201
8.764,-0.00595138317522873
8.766,0.0274334251241155
8.768,0.0474631217092928
8.77,0.045978869674094
8.772,0.0378261813460792
8.774,0.013621761804074
8.776,-0.00552785514496546
8.778,-0.0162076911909693
8.78,-0.00206339097771201
8.782,0.0129915045318198
8.784,0.0444449756773583
8.786,0.0998856889115027
8.788,0.0732427304515242
8.79,0.0432442949541614
8.792,0.0492020580387555
8.794,0.0436844131495977
8.796,0.0533361648989836
8.798,0.0701153886513524
8.8,0.110000000000002
8.802,0.14488461134864
8.804,0.171663835101011
8.806,0.196315586850401
8.808,0.175797941961262
8.81,0.131755705045852
8.812,0.126757269548478
8.814,0.145114311088488
8.816,0.135555024322627
8.818,0.167008495468166
8.82,0.182063390977704
8.822,0.161207691190976
8.824,0.160527855144986
8.826,0.131378238195943
8.828,0.107173818653931
8.83,0.0890211303259007
8.832,0.0925368782906979
8.834,0.092566574875868
8.836,0.0959513831752171
8.838,0.100847289364225
8.84,0.0852671151375606
8.842,0.117943822180282
8.844,0.0560704222977322
8.846,0.0461674008055267
8.848,0.0403435175498996
8.85,0.0149999999999974
8.852,0.0126987431019024
8.854,0.0161932789694735
8.856,-0.022559012206016
8.858,-0.0505831424052847
8.86,-0.065267115137535
8.862,-0.0932079691392196
8.864,-0.109462793266925
8.866,-0.0949272546508829
8.868,-0.105579138942516
8.87,-0.139021130325907
8.872,-0.145216079305726
8.874,-0.15373891797093
8.876,-0.174039265236663
8.878,-0.158568370965963
8.88,-0.147063390977706
8.882,-0.104647815693187
8.884,-0.102043614230944
8.886,-0.0877536313135032
8.888,-0.10371500889667
8.89,-0.126755705045848
8.892,-0.137755681309437
8.894,-0.128954907075406
8.896,-0.143152425009312
8.898,-0.137523931573651
8.9,-0.120000000000004
8.902,-0.0974760684263582
8.904,-0.0768475749906903
8.906,-0.0860450929245957
8.908,-0.112244318690541
8.91,-0.133244294954146
8.912,-0.151284991103326
8.914,-0.147246368686512
8.916,-0.122956385769073
8.918,-0.0803521843068364
8.92,-0.0579366090222946
8.922,-0.041431629034027
8.924,-0.0459607347633161
8.926,-0.0512610820290565
8.928,-0.0747839206942663
8.93,-0.0809788696740998
8.932,-0.089420861057499
8.934,-0.0850727453491353
8.936,-0.0805372067330869
8.938,-0.0717920308607803
8.94,-0.0697328848624337
8.942,-0.099416857594714
8.944,-0.112440987793981
8.946,-0.131193278969471
8.948,-0.127698743101909
8.95,-0.125000000000004
8.952,-0.120343517549904
8.954,-0.131167400805526
8.956,-0.151070422297714
8.958,-0.147943822180278
8.96,-0.150267115137542
8.962,-0.17584728936422
8.964,-0.140951383175223
8.966,-0.13256657487589
8.968,-0.127536878290712
8.97,-0.124021130325906
8.972,-0.127173818653918
8.974,-0.141378238195931
8.976,-0.155527855144971
8.978,-0.176207691190965
8.98,-0.167063390977712
8.982,-0.147008495468183
8.984,-0.130555024322646
8.986,-0.12511431108849
8.988,-0.131757269548475
8.99,-0.141755705045847
8.992,-0.140797941961254
8.994,-0.166315586850402
8.996,-0.171663835101007
8.998,-0.149884611348655
9,-0.105000000000007
9.002,-0.0801153886513521
9.004,-0.0533361648989929
9.006,-0.058684413149595
9.008,-0.069202058038735
9.01,-0.0682442949541447
9.012,-0.103242730451522
9.014,-0.104885688911515
9.016,-0.0844449756773775
9.018,-0.0579915045318316
9.02,-0.0529366090222956
9.022,-0.0437923088090276
9.024,-0.054472144855008
9.026,-0.0636217618040509
9.028,-0.082826181346072
9.03,-0.0959788696741004
9.032,-0.112463121709307
9.034,-0.0974334251241195
9.036,-0.0940486168247863
9.038,-0.0741527106357728
9.04,-0.084732884862436
9.042,-0.0770561778197138
9.044,-0.0789295777022768
9.046,-0.0888325991944732
9.048,-0.0996564824501031
9.05,-0.100000000000001
9.052,-0.092301256898099
9.054,-0.0938067210305304
9.056,-0.107559012206009
9.058,-0.120583142405276
9.06,-0.145267115137543
9.062,-0.153207969139215
9.064,-0.159462793266925
9.066,-0.164927254650885
9.068,-0.165579138942519
9.07,-0.164021130325906
9.072,-0.160216079305724
9.074,-0.178738917970927
9.076,-0.194039265236664
9.078,-0.188568370965963
9.08,-0.17206339097771
9.082,-0.144647815693174
9.084,-0.112043614230952
9.086,-0.122753631313493
9.088,-0.11871500889667
9.09,-0.126755705045845
9.092,-0.137755681309448
9.094,-0.158954907075403
9.096,-0.143152425009312
9.098,-0.127523931573652
9.1,-0.130000000000009
9.102,-0.102476068426355
9.104,-0.0968475749906905
9.106,-0.0960450929245928
9.108,-0.122244318690545
9.11,-0.133244294954143
9.112,-0.146284991103327
9.114,-0.132246368686507
9.116,-0.10795638576908
9.118,-0.0853521843068295
9.12,-0.0729366090222989
9.122,-0.0614316290340271
9.124,-0.0609607347633176
9.126,-0.0912610820290528
9.128,-0.0997839206942645
9.13,-0.100978869674097
9.132,-0.0994208610575021
9.134,-0.105072745349126
9.136,-0.0805372067330869
9.138,-0.076792030860776
9.14,-0.0847328848624534
9.142,-0.104416857594705
9.144,-0.122440987793974
9.146,-0.156193278969474
9.148,-0.16769874310191
9.15,-0.160000000000003
9.152,-0.160343517549907
9.154,-0.161167400805526
9.156,-0.146070422297718
9.158,-0.147943822180273
9.16,-0.145267115137539
9.162,-0.14084728936422
9.164,-0.135951383175226
9.166,-0.152566574875886
9.168,-0.132536878290716
9.17,-0.139021130325907
9.172,-0.152173818653921
9.174,-0.166378238195925
9.176,-0.165527855144964
9.178,-0.171207691190973
9.18,-0.187063390977712
9.182,-0.157008495468179
9.184,-0.16555502432265
9.186,-0.170114311088493
9.188,-0.171757269548477
9.19,-0.166755705045844
9.192,-0.180797941961251
9.194,-0.2063155868504
9.196,-0.166663835101011
9.198,-0.154884611348647
9.2,-0.140000000000016
9.202,-0.11011538865136
9.204,-0.0983361648989924
9.206,-0.103684413149595
9.208,-0.0942020580387356
9.21,-0.113244294954146
9.212,-0.123242730451521
9.214,-0.119885688911515
9.216,-0.0894449756773817
9.218,-0.0679915045318348
9.22,-0.0529366090222959
9.222,-0.0487923088090237
9.224,-0.0744721448550171
9.226,-0.0886217618040643
9.228,-0.107826181346069
9.23,-0.105978869674097
9.232,-0.107463121709311
9.234,-0.0874334251241249
9.236,-0.0840486168247792
9.238,-0.0591527106357727
9.24,-0.0747328848624464
9.242,-0.0620561778197136
9.244,-0.0939295777022736
9.246,-0.0938325991944743
9.248,-0.0896564824501059
9.25,-0.0750000000000049
9.252,-0.0573012568980997
9.254,-0.0588067210305278
9.256,-0.0675590122060201
9.258,-0.0705831424052673
9.26,-0.0952671151375351
9.262,-0.0982079691392203
9.264,-0.119462793266925
9.266,-0.124927254650887
9.268,-0.105579138942517
9.27,-0.109021130325907
9.272,-0.110216079305725
9.274,-0.113738917970923
9.276,-0.134039265236661
9.278,-0.148568370965966
9.28,-0.127063390977715
9.282,-0.129647815693181
9.284,-0.117043614230932
9.286,-0.0977536313134982
9.288,-0.10371500889667
9.29,-0.116755705045843
9.292,-0.142755681309443
9.294,-0.143954907075404
9.296,-0.143152425009312
9.298,-0.137523931573655
9.3,-0.135000000000005
9.302,-0.112476068426358
9.304,-0.121847574990694
9.306,-0.11604509292459
9.308,-0.12724431869054
9.31,-0.153244294954144
9.312,-0.161284991103329
9.314,-0.137246368686512
9.316,-0.12295638576907
9.318,-0.100352184306837
9.32,-0.0579366090222945
9.322,-0.0664316290340273
9.324,-0.0859607347633146
9.326,-0.101261082029061
9.328,-0.104783920694263
9.33,-0.120978869674098
9.332,-0.119420861057493
9.334,-0.0900727453491284
9.336,-0.0755372067330836
9.338,-0.0767920308607718
9.34,-0.0947328848624457
9.342,-0.129416857594714
9.344,-0.152440987793967
9.346,-0.176193278969472
9.348,-0.192698743101911
9.35,-0.180000000000007
9.352,-0.195343517549906
9.354,-0.156167400805526
9.356,-0.146070422297714
9.358,-0.152943822180273
9.36,-0.180267115137535
9.362,-0.17584728936422
9.364,-0.170951383175219
9.366,-0.182566574875892
9.368,-0.167536878290712
9.37,-0.169021130325908
9.372,-0.187173818653917
9.374,-0.186378238195939
9.376,-0.210527855144958
9.378,-0.216207691190969
9.38,-0.22706339097771
9.382,-0.217008495468183
9.384,-0.220555024322638
9.386,-0.225114311088495
9.388,-0.236757269548476
9.39,-0.221755705045845
9.392,-0.205797941961248
9.394,-0.1563155868504
9.396,-0.091663835101006
9.398,-0.0248846113486547
9.4,0.0549999999999973
9.402,0.149884611348633
9.404,0.226663835101004
9.406,0.326315586850407
9.408,0.415797941961267
9.41,0.526755705045857
9.412,0.611757269548478
9.414,0.610114311088483
9.416,0.595555024322622
9.418,0.542008495468162
9.42,0.487063390977704
9.422,0.376207691190969
9.424,0.270527855144989
9.426,0.121378238195942
9.428,-0.00782618134607698
9.43,-0.120978869674098
9.432,-0.2324631217093
9.434,-0.25243342512413
9.436,-0.224048616824783
9.438,-0.179152710635773
9.44,-0.159732884862443
9.442,-0.162056177819709
9.444,-0.138929577702277
9.446,-0.128832599194474
9.448,-0.149656482450101
9.45,-0.125000000000008
9.452,-0.112301256898101
9.454,-0.0988067210305317
9.456,-0.102559012206013
9.458,-0.125583142405276
9.46,-0.145267115137555
9.462,-0.163207969139216
9.464,-0.194462793266926
9.466,-0.18492725465089
9.468,-0.18557913894252
9.47,-0.184021130325904
9.472,-0.190216079305723
9.474,-0.168738917970934
9.476,-0.179039265236671
9.478,-0.178568370965966
9.48,-0.162063390977707
9.482,-0.129647815693189
9.484,-0.13204361423094
9.486,-0.122753631313493
9.488,-0.113715008896671
9.49,-0.121755705045844
9.492,-0.127755681309446
9.494,-0.133954907075401
9.496,-0.113152425009311
9.498,-0.112523931573659
9.5,-0.100000000000009
9.502,-0.0874760684263592
9.504,-0.0918475749906941
9.506,-0.106045092924591
9.508,-0.117244318690536
9.51,-0.133244294954141
9.512,-0.111284991103326
9.514,-0.112246368686517
9.516,-0.0729563857690772
9.518,-0.0403521843068219
9.52,-0.0229366090222987
9.522,-0.0114316290340301
9.524,-0.0209607347633117
9.526,-0.0362610820290571
9.528,-0.0597839206942679
9.53,-0.0559788696740988
9.532,-0.0544208610574958
9.534,-0.0200727453491276
9.536,-0.0155372067330835
9.538,-0.0167920308607768
9.54,-0.0297328848624379
9.542,-0.0544168575947053
9.544,-0.092440987793978
9.546,-0.116193278969469
9.548,-0.122698743101908
9.55,-0.115000000000006
9.552,-0.0853435175499084
9.554,-0.0761674008055269
9.556,-0.0710704222977113
9.558,-0.0629438221802682
9.56,-0.0702671151375457
9.562,-0.0858472893642201
9.564,-0.100951383175227
9.566,-0.0875665748758791
9.568,-0.0625368782907163
9.57,-0.0490211303259046
9.572,-0.0471738186539141
9.574,-0.0563782381959326
9.576,-0.0605278551449718
9.578,-0.0462076911909648
9.58,-0.0520633909777098
9.582,-0.0370084954681802
9.584,-0.0355550243226421
9.586,-0.0401143110884954
9.588,-0.0367572695484758
9.59,-0.0517557050458422
9.592,-0.045797941961249
9.594,-0.0413155868503995
9.596,-0.0116638351010098
9.598,0.000115388651353184
9.6,0.0399999999999882
9.602,0.0898846113486408
9.604,0.101663835101
9.606,0.101315586850407
9.608,0.0957979419612576
9.61,0.0767557050458599
9.612,0.0867572695484796
9.614,0.10011431108849
9.616,0.115555024322617
9.618,0.147008495468168
9.62,0.177063390977704
9.622,0.166207691190973
9.624,0.160527855144975
9.626,0.136378238195948
9.628,0.122173818653926
9.63,0.114021130325902
9.632,0.117536878290695
