short array[10000] = {170 ,170 ,167 ,167 ,167 ,167 ,167 ,170 ,170 ,170
	 ,174 ,174 ,174 ,174 ,177 ,177 ,177 ,177 ,180 ,180
	 ,180 ,180 ,180 ,180 ,180 ,180 ,180 ,184 ,184 ,184
	 ,184 ,187 ,187 ,187 ,187 ,190 ,190 ,190 ,190 ,190
	 ,194 ,194 ,197 ,201 ,201 ,204 ,204 ,207 ,207 ,207
	 ,207 ,204 ,204 ,207 ,207 ,211 ,214 ,214 ,217 ,221
	 ,224 ,227 ,231 ,234 ,241 ,244 ,251 ,254 ,261 ,264
	 ,264 ,268 ,268 ,268 ,271 ,271 ,274 ,278 ,284 ,291
	 ,298 ,305 ,311 ,315 ,318 ,321 ,325 ,328 ,331 ,331
	 ,331 ,331 ,331 ,328 ,328 ,325 ,321 ,318 ,318 ,315
	 ,315 ,315 ,315 ,311 ,308 ,305 ,298 ,291 ,281 ,274
	 ,264 ,258 ,254 ,248 ,244 ,241 ,237 ,234 ,231 ,224
	 ,217 ,211 ,207 ,204 ,204 ,207 ,214 ,224 ,237 ,248
	 ,258 ,264 ,268 ,271 ,271 ,268 ,264 ,264 ,264 ,264
	 ,268 ,268 ,271 ,274 ,278 ,281 ,281 ,281 ,281 ,284
	 ,284 ,288 ,288 ,291 ,291 ,294 ,294 ,294 ,294 ,294
	 ,291 ,291 ,291 ,288 ,288 ,288 ,291 ,291 ,294 ,294
	 ,294 ,298 ,298 ,298 ,298 ,294 ,294 ,294 ,294 ,291
	 ,291 ,291 ,291 ,291 ,291 ,288 ,288 ,288 ,291 ,291
	 ,291 ,294 ,294 ,298 ,298 ,298 ,298 ,294 ,294 ,291
	 ,291 ,288 ,284 ,284 ,284 ,281 ,281 ,281 ,281 ,281
	 ,278 ,278 ,278 ,274 ,271 ,271 ,268 ,268 ,264 ,264
	 ,268 ,268 ,271 ,274 ,278 ,278 ,278 ,278 ,278 ,278
	 ,278 ,278 ,281 ,281 ,281 ,281 ,278 ,274 ,271 ,268
	 ,261 ,261 ,261 ,261 ,264 ,271 ,274 ,274 ,278 ,278
	 ,274 ,271 ,268 ,264 ,264 ,268 ,268 ,271 ,278 ,281
	 ,284 ,288 ,288 ,288 ,291 ,288 ,288 ,288 ,284 ,284
	 ,281 ,278 ,278 ,274 ,278 ,281 ,284 ,288 ,294 ,298
	 ,301 ,305 ,301 ,298 ,294 ,291 ,284 ,281 ,278 ,274
	 ,274 ,271 ,268 ,261 ,258 ,254 ,254 ,251 ,251 ,254
	 ,258 ,258 ,261 ,261 ,261 ,261 ,261 ,258 ,258 ,258
	 ,254 ,254 ,251 ,251 ,248 ,244 ,241 ,241 ,241 ,241
	 ,241 ,241 ,241 ,241 ,237 ,237 ,234 ,231 ,227 ,227
	 ,227 ,227 ,227 ,231 ,231 ,227 ,224 ,221 ,217 ,217
	 ,224 ,237 ,264 ,298 ,341 ,395 ,452 ,509 ,563 ,606
	 ,643 ,663 ,667 ,650 ,620 ,573 ,512 ,445 ,375 ,308
	 ,248 ,201 ,167 ,150 ,147 ,154 ,170 ,187 ,207 ,221
	 ,231 ,237 ,237 ,234 ,231 ,224 ,224 ,221 ,221 ,221
	 ,221 ,224 ,224 ,224 ,221 ,221 ,221 ,217 ,217 ,217
	 ,217 ,217 ,217 ,221 ,221 ,224 ,227 ,227 ,231 ,231
	 ,231 ,231 ,231 ,231 ,231 ,231 ,227 ,227 ,227 ,227
	 ,231 ,231 ,234 ,234 ,237 ,241 ,241 ,241 ,241 ,241
	 ,241 ,241 ,241 ,241 ,244 ,248 ,251 ,254 ,258 ,261
	 ,264 ,264 ,268 ,268 ,271 ,274 ,278 ,281 ,284 ,291
	 ,294 ,294 ,298 ,298 ,298 ,298 ,298 ,301 ,305 ,308
	 ,311 ,318 ,325 ,328 ,335 ,338 ,341 ,341 ,345 ,345
	 ,345 ,345 ,345 ,348 ,348 ,351 ,355 ,358 ,362 ,365
	 ,365 ,362 ,358 ,351 ,341 ,335 ,328 ,325 ,321 ,318
	 ,315 ,311 ,305 ,298 ,288 ,278 ,268 ,258 ,251 ,244
	 ,244 ,244 ,244 ,244 ,244 ,241 ,237 ,231 ,224 ,221
	 ,217 ,214 ,214 ,214 ,217 ,214 ,214 ,211 ,207 ,201
	 ,197 ,197 ,194 ,194 ,197 ,201 ,204 ,207 ,207 ,211
	 ,211 ,211 ,211 ,211 ,211 ,211 ,211 ,211 ,207 ,207
	 ,204 ,204 ,204 ,204 ,207 ,207 ,211 ,211 ,211 ,214
	 ,211 ,211 ,211 ,207 ,207 ,207 ,207 ,207 ,207 ,204
	 ,204 ,204 ,201 ,201 ,201 ,201 ,204 ,204 ,207 ,211
	 ,211 ,214 ,211 ,211 ,211 ,207 ,207 ,207 ,207 ,211
	 ,211 ,214 ,217 ,221 ,221 ,224 ,224 ,224 ,224 ,224
	 ,224 ,224 ,224 ,224 ,227 ,227 ,227 ,224 ,224 ,224
	 ,221 ,217 ,217 ,214 ,214 ,214 ,214 ,214 ,214 ,214
	 ,214 ,214 ,211 ,211 ,207 ,207 ,204 ,204 ,204 ,207
	 ,207 ,207 ,207 ,207 ,207 ,207 ,207 ,207 ,207 ,207
	 ,207 ,211 ,214 ,214 ,217 ,217 ,221 ,221 ,221 ,224
	 ,224 ,227 ,227 ,231 ,231 ,234 ,234 ,234 ,234 ,234
	 ,234 ,234 ,231 ,231 ,227 ,227 ,224 ,224 ,224 ,227
	 ,227 ,231 ,237 ,241 ,244 ,248 ,248 ,248 ,248 ,244
	 ,241 ,237 ,234 ,231 ,227 ,224 ,221 ,217 ,211 ,207
	 ,201 ,197 ,194 ,194 ,194 ,194 ,197 ,197 ,197 ,197
	 ,197 ,197 ,197 ,197 ,197 ,197 ,197 ,197 ,194 ,194
	 ,190 ,187 ,184 ,184 ,184 ,184 ,187 ,190 ,190 ,190
	 ,190 ,187 ,184 ,180 ,177 ,177 ,177 ,177 ,177 ,177
	 ,174 ,170 ,164 ,160 ,160 ,167 ,184 ,211 ,244 ,288
	 ,341 ,398 ,455 ,512 ,563 ,603 ,633 ,647 ,643 ,620
	 ,579 ,522 ,455 ,382 ,305 ,237 ,184 ,147 ,127 ,123
	 ,133 ,154 ,174 ,194 ,207 ,211 ,211 ,204 ,197 ,190
	 ,184 ,180 ,180 ,184 ,187 ,190 ,190 ,194 ,194 ,194
	 ,194 ,194 ,194 ,197 ,201 ,201 ,204 ,204 ,204 ,201
	 ,201 ,201 ,204 ,204 ,207 ,211 ,214 ,217 ,217 ,221
	 ,221 ,224 ,224 ,227 ,231 ,231 ,234 ,237 ,237 ,237
	 ,237 ,234 ,234 ,234 ,234 ,234 ,237 ,241 ,244 ,251
	 ,254 ,258 ,261 ,261 ,261 ,261 ,261 ,258 ,258 ,254
	 ,254 ,258 ,261 ,264 ,271 ,278 ,288 ,294 ,298 ,305
	 ,308 ,311 ,315 ,318 ,321 ,325 ,331 ,335 ,341 ,345
	 ,351 ,355 ,355 ,358 ,358 ,358 ,362 ,365 ,365 ,365
	 ,365 ,365 ,362 ,358 ,351 ,348 ,345 ,341 ,341 ,341
	 ,341 ,341 ,338 ,335 ,328 ,321 ,308 ,298 ,288 ,278
	 ,271 ,268 ,268 ,264 ,264 ,261 ,261 ,254 ,248 ,241
	 ,234 ,227 ,224 ,221 ,217 ,217 ,217 ,217 ,214 ,214
	 ,211 ,207 ,207 ,204 ,204 ,201 ,201 ,204 ,204 ,207
	 ,207 ,207 ,211 ,211 ,207 ,207 ,207 ,207 ,207 ,207
	 ,204 ,204 ,204 ,204 ,204 ,201 ,201 ,201 ,197 ,197
	 ,194 ,190 ,187 ,187 ,184 ,184 ,184 ,187 ,190 ,194
	 ,197 ,201 ,204 ,204 ,204 ,204 ,204 ,201 ,201 ,201
	 ,204 ,204 ,207 ,207 ,211 ,211 ,207 ,207 ,204 ,204
	 ,201 ,201 ,197 ,197 ,197 ,197 ,197 ,197 ,197 ,197
	 ,197 ,194 ,194 ,194 ,194 ,194 ,194 ,194 ,194 ,194
	 ,194 ,194 ,194 ,190 ,190 ,190 ,190 ,187 ,187 ,184
	 ,184 ,180 ,180 ,180 ,180 ,180 ,180 ,180 ,180 ,180
	 ,180 ,177 ,177 ,174 ,174 ,174 ,170 ,170 ,170 ,170
	 ,170 ,170 ,170 ,170 ,170 ,174 ,174 ,174 ,177 ,177
	 ,177 ,174 ,174 ,170 ,167 ,167 ,164 ,167 ,167 ,174
	 ,177 ,180 ,184 ,187 ,184 ,180 ,177 ,174 ,170 ,167
	 ,167 ,167 ,167 ,170 ,170 ,170 ,170 ,174 ,174 ,177
	 ,184 ,190 ,201 ,211 ,221 ,231 ,241 ,248 ,251 ,254
	 ,258 ,258 ,258 ,258 ,261 ,261 ,264 ,268 ,274 ,278
	 ,281 ,288 ,291 ,294 ,298 ,301 ,301 ,301 ,305 ,305
	 ,305 ,305 ,301 ,301 ,301 ,298 ,298 ,294 ,291 ,291
	 ,288 ,284 ,284 ,281 ,278 ,274 ,274 ,271 ,268 ,268
	 ,268 ,268 ,268 ,271 ,271 ,271 ,271 ,268 ,264 ,261
	 ,258 ,254 ,251 ,248 ,244 ,244 ,244 ,244 ,244 ,248
	 ,248 ,251 ,251 ,254 ,254 ,251 ,251 ,251 ,248 ,248
	 ,248 ,248 ,244 ,244 ,244 ,241 ,234 ,231 ,224 ,221
	 ,217 ,221 ,231 ,248 ,274 ,308 ,351 ,402 ,455 ,516
	 ,576 ,633 ,683 ,720 ,740 ,740 ,720 ,677 ,616 ,543
	 ,462 ,385 ,315 ,258 ,217 ,197 ,190 ,197 ,211 ,224
	 ,241 ,251 ,254 ,258 ,258 ,258 ,258 ,261 ,264 ,268
	 ,268 ,271 ,271 ,268 ,264 ,261 ,258 ,254 ,254 ,258
	 ,261 ,264 ,268 ,268 ,271 ,268 ,268 ,264 ,264 ,264
	 ,261 ,261 ,261 ,261 ,261 ,261 ,261 ,261 ,261 ,261
	 ,264 ,264 ,268 ,271 ,274 ,274 ,278 ,278 ,278 ,278
	 ,278 ,274 ,274 ,274 ,278 ,278 ,278 ,281 ,281 ,281
	 ,284 ,284 ,288 ,291 ,294 ,298 ,301 ,305 ,308 ,308
	 ,311 ,311 ,311 ,315 ,318 ,321 ,328 ,335 ,341 ,348
	 ,358 ,362 ,368 ,372 ,372 ,375 ,375 ,375 ,375 ,375
	 ,378 ,382 ,385 ,385 ,388 ,392 ,392 ,392 ,388 ,385
	 ,382 ,378 ,375 ,372 ,372 ,368 ,365 ,362 ,355 ,348
	 ,338 ,328 ,318 ,308 ,298 ,291 ,284 ,281 ,278 ,278
	 ,274 ,268 ,264 ,258 ,251 ,244 ,237 ,234 ,231 ,227
	 ,227 ,224 ,224 ,221 ,214 ,211 ,207 ,204 ,204 ,204
	 ,204 ,207 ,207 ,207 ,204 ,201 ,197 ,194 ,187 ,187
	 ,187 ,187 ,190 ,194 ,197 ,197 ,197 ,194 ,190 ,187
	 ,184 ,180 ,180 ,180 ,180 ,187 ,190 ,197 ,201 ,204
	 ,207 ,204 ,204 ,201 ,197 ,194 ,190 ,190 ,187 ,187
	 ,187 ,190 ,190 ,194 ,194 ,197 ,197 ,201 ,201 ,201
	 ,201 ,197 ,197 ,194 ,190 ,190 ,190 ,190 ,190 ,194
	 ,194 ,197 ,197 ,197 ,197 ,197 ,194 ,194 ,194 ,194
	 ,194 ,194 ,194 ,194 ,190 ,187 ,187 ,184 ,184 ,180
	 ,180 ,180 ,184 ,184 ,184 ,187 ,187 ,187 ,187 ,187
	 ,184 ,184 ,184 ,187 ,187 ,190 ,194 ,197 ,201 ,201
	 ,204 ,204 ,204 ,201 ,197 ,194 ,187 ,184 ,184 ,180
	 ,184 ,184 ,187 ,194 ,194 ,197 ,197 ,197 ,194 ,190
	 ,190 ,187 ,184 ,184 ,184 ,184 ,184 ,184 ,184 ,184
	 ,180 ,180 ,180 ,180 ,180 ,180 ,180 ,180 ,180 ,184
	 ,184 ,184 ,187 ,190 ,190 ,194 ,197 ,197 ,201 ,201
	 ,197 ,197 ,194 ,190 ,187 ,187 ,187 ,187 ,187 ,190
	 ,190 ,194 ,194 ,194 ,194 ,194 ,194 ,190 ,190 ,190
	 ,194 ,194 ,194 ,197 ,197 ,201 ,201 ,204 ,204 ,204
	 ,204 ,204 ,204 ,201 ,197 ,194 ,194 ,190 ,190 ,190
	 ,194 ,197 ,197 ,201 ,201 ,201 ,201 ,201 ,201 ,201
	 ,204 ,204 ,207 ,207 ,211 ,211 ,211 ,211 ,211 ,211
	 ,211 ,211 ,211 ,214 ,214 ,217 ,217 ,221 ,221 ,224
	 ,227 ,231 ,234 ,234 ,237 ,241 ,244 ,244 ,244 ,244
	 ,244 ,244 ,241 ,241 ,241 ,241 ,241 ,241 ,241 ,241
	 ,237 ,237 ,234 ,231 ,227 ,221 ,217 ,211 ,207 ,201
	 ,197 ,197 ,194 ,194 ,197 ,201 ,201 ,204 ,207 ,207
	 ,211 ,211 ,207 ,207 ,204 ,204 ,201 ,197 ,197 ,194
	 ,190 ,190 ,190 ,190 ,190 ,190 ,190 ,190 ,190 ,190
	 ,190 ,190 ,194 ,194 ,197 ,197 ,201 ,201 ,201 ,197
	 ,194 ,190 ,187 ,184 ,184 ,187 ,194 ,207 ,227 ,258
	 ,294 ,338 ,392 ,452 ,512 ,573 ,623 ,667 ,693 ,697
	 ,683 ,643 ,586 ,516 ,435 ,358 ,284 ,224 ,180 ,157
	 ,147 ,147 ,157 ,174 ,187 ,197 ,207 ,214 ,217 ,217
	 ,221 ,224 ,227 ,231 ,234 ,237 ,237 ,237 ,234 ,234
	 ,231 ,231 ,231 ,231 ,231 ,231 ,234 ,231 ,231 ,231
	 ,231 ,234 ,234 ,237 ,237 ,241 ,241 ,244 ,244 ,244
	 ,244 ,241 ,241 ,241 ,244 ,241 ,241 ,241 ,241 ,241
	 ,241 ,241 ,241 ,244 ,248 ,251 ,254 ,258 ,258 ,261
	 ,261 ,264 ,264 ,268 ,271 ,274 ,281 ,284 ,288 ,288
	 ,291 ,291 ,291 ,291 ,291 ,294 ,298 ,305 ,308 ,311
	 ,318 ,321 ,325 ,328 ,331 ,335 ,338 ,345 ,348 ,355
	 ,358 ,365 ,368 ,372 ,372 ,375 ,378 ,378 ,382 ,385
	 ,388 ,388 ,392 ,395 ,398 ,398 ,398 ,395 ,392 ,385
	 ,378 ,368 ,362 ,351 ,345 ,341 ,338 ,338 ,338 ,338
	 ,335 ,331 ,325 ,315 ,301 ,291 ,278 ,268 ,261 ,258
	 ,258 ,258 ,258 ,258 ,258 ,254 ,248 ,244 ,237 ,231
	 ,231 ,227 ,227 ,227 ,227 ,227 ,227 ,227 ,224 ,224
	 ,221 ,217 ,214 ,214 ,214 ,214 ,214 ,214 ,217 ,217
	 ,217 ,214 ,214 ,211 ,211 ,211 ,211 ,211 ,214 ,214
	 ,217 ,221 ,224 ,227 ,227 ,224 ,221 ,217 ,214 ,211
	 ,207 ,207 ,204 ,204 ,204 ,204 ,207 ,211 ,214 ,214
	 ,217 ,217 ,217 ,217 ,214 ,214 ,211 ,211 ,211 ,211
	 ,214 ,221 ,227 ,231 ,234 ,237 ,237 ,234 ,231 ,227
	 ,221 ,217 ,217 ,217 ,217 ,221 ,224 ,227 ,227 ,231
	 ,231 ,231 ,231 ,227 ,227 ,224 ,224 ,221 ,221 ,217
	 ,217 ,214 ,214 ,211 ,207 ,207 ,207 ,207 ,211 ,214
	 ,217 ,221 ,224 ,224 ,224 ,221 ,217 ,211 ,207 ,201
	 ,201 ,197 ,197 ,201 ,201 ,204 ,204 ,204 ,204 ,201
	 ,201 ,197 ,197 ,197 ,201 ,201 ,204 ,207 ,211 ,211
	 ,214 ,214 ,214 ,214 ,214 ,214 ,211 ,211 ,207 ,204
	 ,201 ,197 ,197 ,194 ,194 ,197 ,201 ,204 ,207 ,211
	 ,211 ,211 ,207 ,204 ,204 ,201 ,197 ,194 ,190 ,190
	 ,187 ,187 ,187 ,187 ,187 ,187 ,190 ,190 ,194 ,194
	 ,197 ,201 ,201 ,204 ,204 ,204 ,204 ,204 ,201 ,201
	 ,197 ,197 ,197 ,201 ,201 ,204 ,207 ,211 ,217 ,221
	 ,224 ,224 ,227 ,231 ,234 ,237 ,241 ,248 ,251 ,254
	 ,258 ,261 ,261 ,264 ,264 ,268 ,268 ,271 ,274 ,278
	 ,278 ,281 ,284 ,288 ,288 ,288 ,288 ,288 ,288 ,288
	 ,291 ,291 ,294 ,298 ,301 ,305 ,308 ,308 ,311 ,315
	 ,318 ,321 ,321 ,325 ,325 ,325 ,325 ,325 ,325 ,321
	 ,318 ,315 ,315 ,315 ,311 ,311 ,311 ,311 ,311 ,311
	 ,308 ,305 ,305 ,301 ,298 ,298 ,298 ,294 ,294 ,291
	 ,288 ,284 ,281 ,278 ,274 ,274 ,271 ,271 ,274 ,274
	 ,271 ,271 ,268 ,264 ,261 ,258 ,254 ,254 ,254 ,258
	 ,261 ,264 ,268 ,271 ,274 ,274 ,274 ,271 ,268 ,264
	 ,261 ,258 ,258 ,258 ,258 ,258 ,258 ,258 ,254 ,251
	 ,244 ,241 ,237 ,237 ,244 ,258 ,278 ,308 ,345 ,388
	 ,439 ,492 ,546 ,596 ,640 ,670 ,687 ,687 ,670 ,630
	 ,576 ,509 ,435 ,358 ,291 ,237 ,197 ,177 ,170 ,180
	 ,194 ,214 ,234 ,251 ,261 ,268 ,268 ,268 ,268 ,268
	 ,268 ,271 ,274 ,274 ,274 ,274 ,271 ,268 ,264 ,261
	 ,258 ,258 ,258 ,258 ,261 ,261 ,264 ,264 ,264 ,268
	 ,268 ,264 ,264 ,264 ,264 ,264 ,264 ,264 ,268 ,268
	 ,268 ,268 ,268 ,268 ,268 ,268 ,268 ,271 ,271 ,274
	 ,278 ,281 ,284 ,288 ,291 ,291 ,294 ,291 ,291 ,288
	 ,284 ,281 ,281 ,281 ,281 ,284 ,284 ,288 ,291 ,294
	 ,298 ,301 ,305 ,311 ,315 ,321 ,328 ,331 ,335 ,338
	 ,341 ,341 ,341 ,345 ,345 ,348 ,351 ,358 ,362 ,368
	 ,372 ,375 ,375 ,375 ,375 ,375 ,372 ,372 ,372 ,372
	 ,375 ,378 ,378 ,378 ,378 ,375 ,375 ,368 ,365 ,358
	 ,351 ,345 ,338 ,331 ,321 ,315 ,308 ,298 ,288 ,281
	 ,274 ,268 ,261 ,254 ,251 ,248 ,241 ,237 ,234 ,231
	 ,227 ,221 ,217 ,214 ,211 ,211 ,207 ,207 ,204 ,204
	 ,201 ,194 ,190 ,184 ,180 ,177 ,174 ,174 ,174 ,174
	 ,177 ,177 ,180 ,180 ,180 ,180 ,177 ,177 ,177 ,177
	 ,177 ,177 ,177 ,177 ,174 ,174 ,170 ,170 ,170 ,167
	 ,167 ,170 ,170 ,174 ,174 ,177 ,177 ,177 ,177 ,177
	 ,177 ,174 ,174 ,174 ,174 ,177 ,177 ,180 ,184 ,184
	 ,187 ,187 ,187 ,184 ,180 ,180 ,177 ,177 ,177 ,177
	 ,180 ,187 ,190 ,194 ,197 ,201 ,201 ,197 ,194 ,190
	 ,187 ,184 ,184 ,184 ,187 ,187 ,190 ,190 ,190 ,190
	 ,190 ,187 ,187 ,187 ,187 ,187 ,190 ,194 ,194 ,194
	 ,194 ,190 ,187 ,184 ,180 ,180 ,177 ,177 ,174 ,177
	 ,177 ,177 ,177 ,180 ,180 ,184 ,184 ,184 ,184 ,184
	 ,180 ,180 ,177 ,177 ,177 ,174 ,174 ,174 ,174 ,174
	 ,170 ,170 ,170 ,167 ,167 ,167 ,170 ,174 ,177 ,180
	 ,184 ,187 ,187 ,187 ,187 ,184 ,180 ,177 ,177 ,174
	 ,174 ,177 ,177 ,180 ,184 ,184 ,187 ,187 ,187 ,184
	 ,184 ,180 ,177 ,174 ,174 ,170 ,174 ,174 ,177 ,180
	 ,184 ,187 ,190 ,190 ,187 ,184 ,177 ,174 ,170 ,167
	 ,164 ,167 ,170 ,174 ,177 ,184 ,187 ,190 ,190 ,190
	 ,190 ,187 ,187 ,184 ,184 ,184 ,184 ,184 ,184 ,187
	 ,187 ,187 ,187 ,187 ,187 ,187 ,184 ,184 ,184 ,180
	 ,180 ,180 ,180 ,184 ,187 ,190 ,194 ,197 ,204 ,207
	 ,207 ,211 ,211 ,211 ,211 ,211 ,211 ,214 ,214 ,214
	 ,217 ,221 ,224 ,224 ,227 ,231 ,231 ,231 ,231 ,231
	 ,227 ,227 ,224 ,221 ,221 ,217 ,217 ,214 ,214 ,211
	 ,207 ,207 ,204 ,201 ,201 ,197 ,197 ,197 ,197 ,194
	 ,194 ,194 ,194 ,190 ,187 ,187 ,184 ,180 ,180 ,177
	 ,177 ,177 ,177 ,177 ,177 ,177 ,180 ,180 ,180 ,180
	 ,180 ,184 ,184 ,187 ,190 ,190 ,190 ,190 ,190 ,190
	 ,187 ,184 ,184 ,180 ,180 ,177 ,177 ,174 ,170 ,170
	 ,167 ,170 ,174 ,187 ,204 ,234 ,268 ,315 ,365 ,422
	 ,482 ,539 ,590 ,630 ,653 ,657 ,643 ,610 ,559 ,492
	 ,422 ,348 ,278 ,221 ,177 ,150 ,137 ,137 ,147 ,157
	 ,170 ,184 ,190 ,197 ,197 ,197 ,197 ,201 ,201 ,204
	 ,207 ,211 ,214 ,214 ,214 ,214 ,214 ,214 ,214 ,217
	 ,217 ,217 ,217 ,217 ,217 ,217 ,217 ,221 ,221 ,224
	 ,224 ,227 ,227 ,227 ,227 ,227 ,227 ,227 ,227 ,227
	 ,231 ,234 ,237 ,241 ,244 ,244 ,248 ,248 ,248 ,248
	 ,248 ,248 ,248 ,248 ,251 ,251 ,254 ,258 ,258 ,261
	 ,261 ,261 ,264 ,264 ,264 ,264 ,268 ,271 ,274 ,278
	 ,281 ,284 ,288 ,291 ,294 ,298 ,301 ,305 ,308 ,311
	 ,315 ,318 ,325 ,328 ,335 ,338 ,345 ,348 ,355 ,358
	 ,362 ,365 ,365 ,368 ,372 ,372 ,372 ,372 ,372 ,372
	 ,372 ,372 ,372 ,372 ,372 ,368 ,368 ,368 ,365 ,362
	 ,358 ,351 ,345 ,338 ,331 ,325 ,318 ,315 ,308 ,301
	 ,294 ,288 ,281 ,271 ,264 ,258 ,251 ,248 ,244 ,244
	 ,244 ,244 ,244 ,244 ,241 ,237 ,237 ,234 ,231 ,227
	 ,224 ,224 ,224 ,224 ,227 ,227 ,231 ,231 ,231 ,231
	 ,227 ,224 ,221 ,217 ,214 ,211 ,207 ,204 ,204 ,207
	 ,207 ,211 ,214 ,214 ,217 ,221 ,221 ,224 ,224 ,227
	 ,227 ,227 ,227 ,227 ,224 ,224 ,221 ,221 ,221 ,221
	 ,224 ,224 ,227 ,231 ,234 ,237 ,237 ,237 ,241 ,241
	 ,241 ,241 ,241 ,241 ,241 ,241 ,241 ,237 ,234 ,234
	 ,231 ,231 ,227 ,227 ,231 ,231 ,231 ,231 ,231 ,231
	 ,231 ,227 ,227 ,224 ,224 ,224 ,224 ,224 ,227 ,231
	 ,234 ,234 ,237 ,237 ,237 ,237 ,237 ,237 ,234 ,234
	 ,231 ,231 ,227 ,227 ,227 ,224 ,224 ,221 ,221 ,221
	 ,221 ,221 ,221 ,221 ,224 ,224 ,227 ,227 ,227 ,227
	 ,227 ,224 ,221 ,221 ,217 ,217 ,217 ,221 ,221 ,224
	 ,224 ,224 ,221 ,217 ,211 ,207 ,204 ,204 ,204 ,204
	 ,207 ,211 ,214 ,217 ,217 ,217 ,217 ,217 ,217 ,214
	 ,214 ,214 ,214 ,214 ,214 ,214 ,214 ,214 ,214 ,214
	 ,211 ,211 ,211 ,211 ,211 ,211 ,211 ,211 ,211 ,214
	 ,214 ,217 ,217 ,217 ,217 ,214 ,214 ,211 ,211 ,207
	 ,207 ,207 ,207 ,207 ,204 ,204 ,204 ,201 ,201 ,201
	 ,197 ,201 ,201 ,204 ,207 ,207 ,211 ,211 ,207 ,207
	 ,204 ,197 ,194 ,190 ,187 ,187 ,190 ,194 ,197 ,201
	 ,204 ,207 ,207 ,204 ,204 ,201 ,201 ,201 ,201 ,201
	 ,204 ,207 ,211 ,211 ,211 ,211 ,211 ,214 ,214 ,214
	 ,217 ,221 ,224 ,227 ,231 ,234 ,234 ,234 ,234 ,234
	 ,234 ,237 ,244 ,248 ,258 ,264 ,271 ,278 ,284 ,291
	 ,294 ,298 ,301 ,305 ,308 ,308 ,311 ,315 ,315 ,315
	 ,315 ,311 ,308 ,305 ,301 ,298 ,298 ,298 ,298 ,301
	 ,305 ,305 ,308 ,308 ,308 ,308 ,308 ,308 ,305 ,305
	 ,305 ,305 ,301 ,301 ,301 ,298 ,298 ,294 ,294 ,294
	 ,294 ,294 ,294 ,294 ,294 ,294 ,294 ,291 ,291 ,288
	 ,284 ,284 ,281 ,278 ,274 ,271 ,268 ,268 ,268 ,274
	 ,288 ,305 ,335 ,368 ,415 ,465 ,526 ,586 ,647 ,700
	 ,744 ,771 ,781 ,767 ,734 ,680 ,613 ,536 ,455 ,378
	 ,315 ,268 ,237 ,224 ,227 ,237 ,254 ,271 ,288 ,298
	 ,305 ,305 ,305 ,305 ,301 ,301 ,305 ,305 ,305 ,308
	 ,305 ,305 ,301 ,298 ,298 ,294 ,291 ,291 ,291 ,291
	 ,288 ,288 ,288 ,288 ,288 ,288 ,291 ,291 ,294 ,294
	 ,298 ,298 ,298 ,298 ,298 ,298 ,298 ,298 ,298 ,301
	 ,305 ,308 ,311 ,315 ,318 ,318 ,318 ,318 ,318 ,318
	 ,318 ,318 ,318 ,321 ,321 ,325 ,328 ,328 ,328 ,328
	 ,328 ,328 ,328 ,328 ,328 ,328 ,331 ,335 ,341 ,345
	 ,348 ,355 ,358 ,362 ,365 ,372 ,375 ,382 ,385 ,392
	 ,395 ,402 ,405 ,408 ,412 ,415 ,419 ,419 ,422 ,422
	 ,425 ,429 ,429 ,432 ,432 ,435 ,435 ,439 ,439 ,439
	 ,439 ,435 ,432 ,429 ,422 ,412 ,405 ,395 ,388 ,378
	 ,372 ,365 ,358 ,348 ,341 ,331 ,321 ,311 ,305 ,294
	 ,291 ,284 ,281 ,278 ,274 ,271 ,264 ,258 ,251 ,241
	 ,234 ,227 ,224 ,221 ,217 ,217 ,217 ,221 ,217 ,217
	 ,217 ,214 ,211 ,207 ,207 ,207 ,207 ,207 ,207 ,207
	 ,207 ,204 ,201 ,201 ,197 ,194 ,194 ,194 ,194 ,194
	 ,197 ,197 ,201 ,201 ,201 ,201 ,197 ,197 ,197 ,197
	 ,197 ,197 ,197 ,197 ,194 ,190 ,190 ,187 ,184 ,184
	 ,180 ,184 ,184 ,187 ,187 ,190 ,190 ,190 ,190 ,190
	 ,194 ,194 ,194 ,197 ,197 ,197 ,201 ,201 ,197 ,197
	 ,194 ,190 ,187 ,187 ,184 ,184 ,184 ,184 ,187 ,187
	 ,190 ,190 ,190 ,190 ,187 ,184 ,180 ,177 ,174 ,174
	 ,170 ,170 ,170 ,174 ,174 ,177 ,180 ,180 ,184 ,184
	 ,184 ,180 ,180 ,180 ,180 ,180 ,180 ,180 ,180 ,180
	 ,177 ,177 ,174 ,170 ,167 ,164 ,160 ,160 ,160 ,157
	 ,157 ,157 ,160 ,160 ,160 ,164 ,164 ,167 ,167 ,167
	 ,167 ,164 ,164 ,160 ,157 ,150 ,150 ,147 ,147 ,147
	 ,150 ,154 ,154 ,157 ,157 ,160 ,160 ,160 ,160 ,160
	 ,160 ,160 ,160 ,160 ,160 ,160 ,160 ,160 ,160 ,160
	 ,160 ,164 ,164 ,167 ,167 ,167 ,167 ,164 ,164 ,160
	 ,160 ,160 ,160 ,160 ,164 ,167 ,170 ,174 ,174 ,177
	 ,177 ,177 ,177 ,177 ,174 ,174 ,174 ,170 ,170 ,170
	 ,170 ,170 ,174 ,177 ,180 ,184 ,187 ,187 ,187 ,187
	 ,187 ,184 ,184 ,184 ,184 ,184 ,187 ,190 ,190 ,190
	 ,190 ,190 ,190 ,194 ,194 ,197 ,204 ,207 ,214 ,221
	 ,224 ,227 ,231 ,231 ,231 ,227 ,224 ,221 ,214 ,207
	 ,204 ,197 ,194 ,187 ,184 ,180 ,180 ,177 ,177 ,174
	 ,170 ,170 ,167 ,164 ,164 ,164 ,164 ,167 ,170 ,170
	 ,174 ,177 ,177 ,177 ,177 ,174 ,174 ,170 ,167 ,167
	 ,164 ,160 ,160 ,157 ,157 ,160 ,160 ,164 ,167 ,167
	 ,170 ,170 ,170 ,167 ,164 ,160 ,160 ,157 ,157 ,157
	 ,157 ,157 ,157 ,160 ,164 ,174 ,194 ,221 ,258 ,305
	 ,362 ,419 ,479 ,533 ,576 ,603 ,616 ,610 ,583 ,543
	 ,486 ,422 ,355 ,288 ,227 ,180 ,144 ,120 ,110 ,113
	 ,123 ,140 ,160 ,177 ,190 ,197 ,204 ,204 ,204 ,204
	 ,204 ,207 ,207 ,207 ,207 ,204 ,201 ,197 ,194 ,190
	 ,190 ,190 ,194 ,197 ,204 ,207 ,211 ,214 ,214 ,214
	 ,214 ,211 ,211 ,211 ,211 ,211 ,214 ,214 ,217 ,217
	 ,217 ,217 ,217 ,217 ,217 ,217 ,217 ,217 ,221 ,221
	 ,224 ,227 ,234 ,237 ,241 ,244 ,248 ,248 ,251 ,251
	 ,254 ,254 ,258 ,261 ,261 ,264 ,268 ,268 ,271 ,271
	 ,268 ,268 ,268 ,268 ,271 ,274 ,278 ,284 ,291 ,298
	 ,305 ,311 ,315 ,321 ,325 ,328 ,331 ,335 ,338 ,341
	 ,345 ,348 ,351 ,355 ,355 ,355 ,355 ,355 ,355 ,355
	 ,355 ,358 ,358 ,362 ,365 ,365 ,368 ,365 ,365 ,362
	 ,358 ,351 ,348 ,341 ,335 ,328 ,321 ,315 ,308 ,301
	 ,294 ,288 ,284 ,281 ,278 ,274 ,271 ,268 ,264 ,261
	 ,254 ,248 ,241 ,234 ,231 ,227 ,224 ,221 ,221 ,221
	 ,221 ,224 ,224 ,224 ,221 ,221 ,221 ,217 ,214 ,214
	 ,214 ,211 ,211 ,211 ,211 ,211 ,211 ,214 ,214 ,214
	 ,217 ,217 ,217 ,217 ,221 ,221 ,221 ,221 ,221 ,221
	 ,221 ,221 ,224 ,224 ,224 ,224 ,221 ,221 ,221 ,217
	 ,217 ,217 ,217 ,217 ,221 ,224 ,224 ,227 ,231 ,231
	 ,234 ,234 ,234 ,231 ,231 ,227 ,224 ,224 ,221 ,221
	 ,221 ,221 ,224 ,224 ,231 ,234 ,237 ,237 ,237 ,237
	 ,237 ,234 ,231 ,227 ,227 ,224 ,224 ,227 ,227 ,227
	 ,231 ,231 ,231 ,231 ,231 ,231 ,231 ,231 ,227 ,227
	 ,227 ,224 ,224 ,221 ,221 ,217 ,217 ,217 ,217 ,217
	 ,217 ,217 ,214 ,214 ,214 ,214 ,214 ,214 ,217 ,217
	 ,221 ,221 ,221 ,221 ,221 ,217 ,217 ,217 ,217 ,217
	 ,221 ,224 ,227 ,227 ,231 ,231 ,231 ,227 ,227 ,224
	 ,221 ,221 ,217 ,221 ,221 ,224 ,227 ,227 ,227 ,227
	 ,224 ,221 ,217 ,211 ,207 ,204 ,201 ,201 ,201 ,204
	 ,207 ,211 ,214 ,217 ,217 ,221 ,221 ,224 ,224 ,224
	 ,224 ,224 ,224 ,221 ,221 ,217 ,217 ,214 ,214 ,214
	 ,214 ,214 ,214 ,214 ,214 ,214 ,214 ,214 ,214 ,214
	 ,211 ,211 ,214 ,217 ,221 ,224 ,231 ,237 ,241 ,244
	 ,244 ,241 ,241 ,237 ,234 ,231 ,227 ,231 ,234 ,237
	 ,244 ,251 ,254 ,261 ,261 ,264 ,264 ,261 ,261 ,258
	 ,258 ,258 ,254 ,254 ,251 ,248 ,241 ,234 ,227 ,221
	 ,214 ,211 ,207 ,207 ,207 ,207 ,211 ,211 ,211 ,211
	 ,211 ,211 ,207 ,207 ,207 ,207 ,207 ,207 ,207 ,207
	 ,207 ,204 ,201 ,201 ,197 ,197 ,194 ,197 ,197 ,201
	 ,201 ,204 ,204 ,204 ,204 ,204 ,204 ,204 ,204 ,201
	 ,201 ,194 ,190 ,184 ,180 ,177 ,177 ,180 ,190 ,211
	 ,234 ,268 ,308 ,348 ,395 ,442 ,486 ,526 ,556 ,576
	 ,579 ,573 ,546 ,506 ,452 ,392 ,328 ,268 ,214 ,174
	 ,147 ,137 ,140 ,150 ,167 ,187 ,201 ,211 ,217 ,214
	 ,211 ,207 ,204 ,204 ,207 ,211 ,217 ,221 ,224 ,221
	 ,217 ,211 ,204 ,201 ,194 ,194 ,194 ,197 ,204 ,207
	 ,214 ,217 ,217 ,221 ,217 ,217 ,217 ,217 ,217 ,217
	 ,221 ,224 ,224 ,227 ,227 ,227 ,227 ,231 ,237 ,244
	 ,251 ,261 ,271 ,281 ,294 ,301 ,308 ,315 ,321 ,325
	 ,331 ,335 ,338 ,341 ,345 ,345 ,348 ,348 ,351 ,355
	 ,362 ,365 ,372 ,378 ,385 ,388 ,392 ,395 ,395 ,392
	 ,392 ,392 ,395 ,398 ,405 ,412 ,422 ,429 ,435 ,442
	 ,449 ,452 ,455 ,455 ,459 ,459 ,462 ,462 ,465 ,465
	 ,465 ,465 ,465 ,462 ,462 ,462 ,462 ,462 ,465 ,465
	 ,465 ,465 ,462 ,459 ,455 ,449 ,442 ,432 ,425 ,419
	 ,412 ,405 ,402 ,395 ,388 ,382 ,375 ,368 ,362 ,355
	 ,351 ,348 ,345 ,341 ,338 ,335 ,335 ,331 ,328 ,325
	 ,325 ,321 ,321 ,321 ,318 ,318 ,318 ,315 ,311 ,308
	 ,301 ,298 ,294 ,291 ,291 ,291 ,294 ,298 ,301 ,305
	 ,305 ,305 ,301 ,298 ,294 ,291 ,288 ,288 ,288 ,288
	 ,291 ,291 ,291 ,291 ,291 ,291 ,291 ,288 ,288 ,288
	 ,288 ,288 ,288 ,288 ,288 ,284 ,284 ,284 ,284 ,281
	 ,281 ,281 ,281 ,281 ,281 ,278 ,278 ,278 ,274 ,274
	 ,274 ,274 ,274 ,274 ,274 ,274 ,271 ,271 ,268 ,268
	 ,264 ,261 ,261 ,258 ,258 ,261 ,261 ,261 ,264 ,264
	 ,264 ,264 ,261 ,258 ,254 ,251 ,248 ,244 ,244 ,241
	 ,241 ,241 ,244 ,244 ,244 ,244 ,244 ,244 ,241 ,241
	 ,241 ,237 ,237 ,234 ,234 ,234 ,234 ,234 ,234 ,237
	 ,237 ,237 ,237 ,237 ,234 ,234 ,234 ,231 ,227 ,227
	 ,224 ,221 ,217 ,214 ,214 ,214 ,217 ,221 ,224 ,227
	 ,231 ,231 ,231 ,227 ,221 ,214 ,207 ,204 ,201 ,197
	 ,201 ,204 ,207 ,214 ,217 ,217 ,217 ,217 ,214 ,211
	 ,207 ,204 ,201 ,197 ,194 ,194 ,190 ,190 ,190 ,190
	 ,190 ,190 ,190 ,194 ,197 ,201 ,201 ,204 ,204 ,201
	 ,201 ,201 ,201 ,201 ,201 ,204 ,207 ,211 ,214 ,217
	 ,221 ,221 ,217 ,214 ,211 ,207 ,204 ,201 ,201 ,204
	 ,207 ,211 ,217 ,227 ,234 ,237 ,244 ,244 ,244 ,241
	 ,237 ,234 ,227 ,224 ,221 ,217 ,217 ,217 ,217 ,214
	 ,214 ,211 ,207 ,204 ,197 ,190 ,187 ,180 ,177 ,177
	 ,174 ,174 ,174 ,174 ,174 ,174 ,177 ,177 ,177 ,180
	 ,180 ,180 ,177 ,177 ,174 ,170 ,164 ,160 ,160 ,160
	 ,160 ,160 ,164 ,167 ,170 ,174 ,174 ,174 ,174 ,170
	 ,167 ,164 ,160 ,160 ,157 ,154 ,154 ,150 ,150 ,150
	 ,154 ,160 ,170 ,190 ,217 ,251 ,294 ,345 ,398 ,452
	 ,502 ,543 ,566 ,576 ,566 ,536 ,489 ,432 ,365 ,301
	 ,237 ,187 ,147 ,123 ,110 ,110 ,117 ,130 ,144 ,154
	 ,164 ,170 ,174 ,177 ,180 ,180 ,180 ,184 ,184 ,184
	 ,184 ,184 ,180 ,180 ,177 ,177 ,177 ,177 ,180 ,187
	 ,190 ,197 ,201 ,204 ,207 ,207 ,204 ,204 ,201 ,197
	 ,194 ,194 ,197 ,201 ,204 ,207 ,214 ,217 ,221 ,221
	 ,221 ,217 ,214 ,211 ,207 ,204 ,204 ,204 ,204 ,207
	 ,211 ,214 ,214 ,217 ,217 ,217 ,217 ,221 ,224 ,224
	 ,231 ,234 ,237 ,241 ,244 ,244 ,248 ,248 ,251 ,254
	 ,258 ,261 ,264 ,268 ,271 ,274 ,274 ,278 ,278 ,284
	 ,288 ,294 ,305 ,315 ,321 ,328 ,335 ,338 ,338 ,338
	 ,335 ,335 ,335 ,335 ,338 ,341 ,345 ,348 ,348 ,345
	 ,341 ,338 ,335 ,331 ,331 ,328 ,328 ,328 ,328 ,325
	 ,318 ,311 ,301 ,291 ,281 ,271 ,264 ,258 ,251 ,248
	 ,244 ,241 ,237 ,234 ,227 ,224 ,221 ,217 ,211 ,207
	 ,204 ,197 ,194 ,190 ,187 ,187 ,187 ,187 ,187 ,190
	 ,190 ,190 ,187 ,187 ,184 ,180 ,177 ,177 ,174 ,177
	 ,177 ,180 ,187 ,190 ,194 ,194 ,194 ,190 ,190 ,187
	 ,184 ,180 ,180 ,184 ,187 ,190 ,194 ,201 ,204 ,204
	 ,204 ,201 ,194 ,190 ,184 ,180 ,177 ,177 ,177 ,180
	 ,187 ,190 ,197 ,201 ,204 ,204 ,204 ,201 ,201 ,201
	 ,197 ,197 ,197 ,194 ,194 ,194 ,194 ,194 ,194 ,194
	 ,194 ,197 ,201 ,204 ,204 ,207 ,211 ,211 ,211 ,211
	 ,211 ,211 ,211 ,211 ,211 ,214 ,214 ,214 ,211 ,211
	 ,211 ,207 ,207 ,204 ,204 ,201 ,197 ,197 ,194 ,190
	 ,190 ,187 ,187 ,187 ,187 ,190 ,190 ,194 ,194 ,194
	 ,194 ,197 ,197 ,197 ,201 ,201 ,204 ,204 ,204 ,204
	 ,201 ,201 ,197 ,194 ,194 ,194 ,194 ,194 ,194 ,194
	 ,197 ,197 ,201 ,201 ,201 ,201 ,201 ,201 ,201 ,197
	 ,197 ,197 ,197 ,197 ,201 ,201 ,201 ,201 ,201 ,201
	 ,201 ,197 ,197 ,197 ,194 ,197 ,197 ,197 ,197 ,197
	 ,197 ,197 ,197 ,194 ,194 ,194 ,194 ,194 ,197 ,197
	 ,201 ,204 ,204 ,207 ,211 ,214 ,214 ,217 ,217 ,217
	 ,217 ,221 ,221 ,221 ,221 ,224 ,227 ,231 ,234 ,241
	 ,244 ,251 ,254 ,258 ,258 ,261 ,258 ,254 ,251 ,244
	 ,237 ,231 ,224 ,221 ,217 ,217 ,217 ,217 ,217 ,217
	 ,214 ,211 ,207 ,204 ,197 ,194 ,194 ,194 ,194 ,197
	 ,197 ,201 ,201 ,197 ,197 ,194 ,194 ,190 ,190 ,194
	 ,194 ,197 ,197 ,197 ,197 ,197 ,197 ,194 ,194 ,194
	 ,194 ,194 ,194 ,194 ,190 ,187 ,184 ,180 ,177 ,177
	 ,177 ,177 ,177 ,177 ,180 ,184 ,190 ,207 ,231 ,264
	 ,308 ,365 ,425 ,489 ,553 ,603 ,643 ,660 ,657 ,633
	 ,590 ,526 ,455 ,378 ,305 ,241 ,187 ,150 ,130 ,123
	 ,130 ,144 ,160 ,177 ,194 ,207 ,214 ,217 ,214 ,214
	 ,211 ,207 ,207 ,207 ,207 ,211 ,214 ,214 ,214 ,214
	 ,211 ,207 ,207 ,207 ,207 ,207 ,211 ,214 ,217 ,221
	 ,221 ,221 ,221 ,221 ,221 ,224 ,224 ,227 ,231 ,234
	 ,237 ,241 ,241 ,244 ,244 ,244 ,241 ,241 ,241 ,241
	 ,241 ,244 ,244 ,244 ,248 ,248 ,248 ,248 ,251 ,251
	 ,251 ,251 ,251 ,254 ,258 ,261 ,268 ,271 ,278 ,281
	 ,284 ,288 ,291 ,291 ,294 ,298 ,298 ,301 ,305 ,308
	 ,311 ,315 ,318 ,321 ,325 ,328 ,331 ,338 ,341 ,348
	 ,351 ,355 ,362 ,365 ,368 ,372 ,375 ,378 ,382 ,385
	 ,385 ,388 ,388 ,388 ,385 ,382 ,378 ,372 ,368 ,368
	 ,365 ,365 ,365 ,365 ,362 ,355 ,351 ,341 ,331 ,321
	 ,311 ,301 ,291 ,284 ,278 ,274 ,271 ,268 ,264 ,261
	 ,261 ,258 ,254 ,251 ,251 ,248 ,244 ,237 ,234 ,227
	 ,221 ,217 ,211 ,207 ,207 ,207 ,207 ,214 ,217 ,221
	 ,224 ,224 ,224 ,221 ,217 ,214 ,211 ,207 ,207 ,211
	 ,211 ,214 ,217 ,221 ,221 ,221 ,217 ,217 ,214 ,214
	 ,211 ,211 ,211 ,211 ,214 ,214 ,214 ,214 ,214 ,217
	 ,217 ,221 ,224 ,227 ,231 ,231 ,231 ,231 ,231 ,227
	 ,224 ,224 ,224 ,224 ,224 ,227 ,227 ,227 ,227 ,227
	 ,227 ,227 ,227 ,224 ,227 ,227 ,227 ,227 ,227 ,227
	 ,227 ,227 ,227 ,231 ,231 ,234 ,234 ,234 ,231 ,231
	 ,227 ,227 ,227 ,227 ,231 ,237 ,244 ,251 ,261 ,268
	 ,278 ,284 ,291 ,294 ,301 ,305 ,305 ,308 ,308 ,308
	 ,305 ,305 ,301 ,301 ,298 ,298 ,301 ,301 ,301 ,301
	 ,305 ,301 ,301 ,301 ,298 ,298 ,298 ,298 ,301 ,301
	 ,305 ,308 ,311 ,315 ,318 ,318 ,321 ,318 ,318 ,315
	 ,315 ,311 ,311 ,311 ,311 ,311 ,311 ,311 ,311 ,311
	 ,311 ,311 ,311 ,308 ,308 ,308 ,308 ,308 ,308 ,305
	 ,305 ,301 ,298 ,294 ,294 ,294 ,294 ,294 ,298 ,301
	 ,305 ,308 ,308 ,308 ,308 ,308 ,308 ,305 ,308 ,308
	 ,308 ,311 ,315 ,315 ,318 ,318 ,321 ,321 ,325 ,328
	 ,331 ,335 ,338 ,338 ,341 ,341 ,338 ,338 ,335 ,331
	 ,331 ,328 ,325 ,321 ,318 ,311 ,308 ,301 ,294 ,288
	 ,281 ,278 ,274 ,274 ,271 ,271 ,268 ,264 ,264 ,261
	 ,258 ,254 ,251 ,251 ,251 ,248 ,248 ,244 ,244 ,244
	 ,241 ,241 ,237 ,237 ,237 ,237 ,237 ,237 ,237 ,237
	 ,241 ,241 ,241 ,244 ,244 ,244 ,241 ,237 ,231 ,224
	 ,217 ,211 ,204 ,201 ,201 ,204 ,214 ,231 ,254 ,288
	 ,331 ,382 ,442 ,506 ,569 ,626 ,670 ,700 ,710 ,697
	 ,663 ,606 ,536 ,455 ,375 ,301 ,234 ,187 ,154 ,140
	 ,137 ,147 ,164 ,180 ,197 ,211 ,217 ,221 ,221 ,221
	 ,217 ,217 ,217 ,221 ,221 ,224 ,224 ,227 ,227 ,224
	 ,224 ,224 ,224 ,227 ,227 ,231 ,231 ,234 ,234 ,234
	 ,234 ,231 ,231 ,227 ,227 ,227 ,227 ,227 ,227 ,227
	 ,227 ,227 ,227 ,231 ,231 ,231 ,234 ,234 ,237 ,237
	 ,237 ,237 ,237 ,241 ,241 ,241 ,241 ,241 ,241 ,244
	 ,248 ,248 ,251 ,254 ,258 ,261 ,261 ,261 ,261 ,261
	 ,261 ,258 ,258 ,261 ,264 ,268 ,274 ,281 ,288 ,294
	 ,298 ,301 ,305 ,305 ,305 ,308 ,308 ,311 ,315 ,321
	 ,328 ,335 ,341 ,345 ,351 ,351 ,355 ,355 ,358 ,358
	 ,358 ,358 ,358 ,355 ,355 ,351 ,345 ,341 ,338 ,331
	 ,331 ,328 ,325 ,321 ,318 ,311 ,308 ,298 ,291 ,284
	 ,278 ,271 ,268 ,264 ,261 ,261 ,258 ,254 ,248 ,241
	 ,234 ,224 ,217 ,207 ,204 ,197 ,194 ,194 ,194 ,190
	 ,190 ,190 ,190 ,187 ,187 ,184 ,180 ,180 ,177 ,174
	 ,174 ,174 ,177 ,180 ,184 ,184 ,187 ,190 ,194 ,197
	 ,197 ,197 ,201 ,201 ,201 ,201 ,197 ,197 ,194 ,190
	 ,190 ,187 ,184 ,184 ,184 ,184 ,187 ,190 ,190 ,194
	 ,194 ,197 ,197 ,197 ,194 ,194 ,194 ,190 ,190 ,187
	 ,187 ,187 ,187 ,187 ,190 ,190 ,194 ,194 ,197 ,197
	 ,197 ,197 ,197 ,194 ,194 ,190 ,187 ,184 ,184 ,180
	 ,180 ,184 ,184 ,184 ,187 ,187 ,184 ,184 ,180 ,180
	 ,177 ,174 ,174 ,174 ,174 ,177 ,180 ,180 ,184 ,184
	 ,187 ,187 ,187 ,187 ,184 ,184 ,184 ,184 ,184 ,187
	 ,187 ,187 ,187 ,187 ,184 ,180 ,177 ,174 ,170 ,170
	 ,170 ,174 ,174 ,177 ,180 ,180 ,180 ,177 ,177 ,174
	 ,170 ,170 ,167 ,167 ,167 ,170 ,170 ,170 ,170 ,170
	 ,170 ,174 ,174 ,174 ,177 ,180 ,184 ,187 ,190 ,194
	 ,197 ,201 ,204 ,204 ,207 ,207 ,207 ,207 ,207 ,207
	 ,207 ,211 ,214 ,217 ,217 ,221 ,221 ,221 ,217 ,214
	 ,207 ,204 ,201 ,194 ,190 ,187 ,184 ,180 ,177 ,174
	 ,174 ,174 ,174 ,177 ,180 ,184 ,187 ,187 ,190 ,190
	 ,187 ,187 ,184 ,180 ,177 ,174 ,174 ,170 ,170 ,170
	 ,167 ,167 ,164 ,164 ,160 ,160 ,160 ,164 ,164 ,167
	 ,167 ,167 ,167 ,167 ,167 ,167 ,167 ,164 ,164 ,160
	 ,157 ,154 ,147 ,144 ,140 ,144 ,150 ,170 ,204 ,248
	 ,301 ,365 ,429 ,492 ,546 ,586 ,610 ,616 ,600 ,566
	 ,516 ,455 ,385 ,318 ,251 ,194 ,147 ,113 ,97 ,90
	 ,93 ,107 ,123 ,140 ,154 ,167 ,174 ,177 ,180 ,180
	 ,180 ,180 ,180 ,184 ,184 ,187 ,190 ,194 ,197 ,197
	 ,197 ,197 ,197 ,197 ,197 ,197 ,197 ,197 ,197 ,201
	 ,201 ,201 ,197 ,197 ,197 ,197 ,201 ,201 ,204 ,207
	 ,211 ,214 ,217 ,217 ,217 ,217 ,217 ,214 ,214 ,214
	 ,217 ,217 ,221 ,221 ,224 ,224 ,224 ,224 ,224 ,227
	 ,231 ,234 ,237 ,244 ,251 ,254 ,258 ,261 ,264 ,264
	 ,264 ,264 ,264 ,268 ,271 ,274 ,278 ,281 ,284 ,284
	 ,288 ,288 ,291 ,294 ,301 ,308 ,315 ,321 ,328 ,335
	 ,338 ,341 ,345 ,345 ,348 ,351 ,351 ,355 ,355 ,358
	 ,358 ,358 ,355 ,355 ,355 ,355 ,355 ,355 ,351 ,348
	 ,345 ,338 ,331 ,321 ,311 ,301 ,294 ,288 ,284 ,281
	 ,278 ,271 ,268 ,261 ,254 ,244 ,237 ,231 ,224 ,217
	 ,214 ,211 ,207 ,201 ,197 ,194 ,190 ,190 ,190 ,190
	 ,190 ,190 ,194 ,190 ,190 ,184 ,180 ,174 ,170 ,167
	 ,167 ,167 ,170 ,174 ,180 ,184 ,190 ,194 ,197 ,201
	 ,201 ,201 ,197 ,197 ,194 ,194 ,194 ,190 ,190 ,194
	 ,194 ,194 ,197 ,197 ,201 ,201 ,201 ,197 ,197 ,194
	 ,190 ,190 ,187 ,187 ,187 ,187 ,190 ,190 ,190 ,190
	 ,190 ,190 ,190 ,190 ,194 ,197 ,201 ,204 ,207 ,207
	 ,211 ,211 ,207 ,204 ,204 ,201 ,197 ,197 ,197 ,201
	 ,201 ,201 ,201 ,197 ,197 ,194 ,190 ,187 ,187 ,187
	 ,190 ,194 ,197 ,201 ,201 ,204 ,201 ,201 ,197 ,197
	 ,197 ,197 ,197 ,197 ,201 ,201 ,201 ,201 ,201 ,201
	 ,201 ,201 ,201 ,204 ,204 ,204 ,204 ,204 ,201 ,197
	 ,197 ,194 ,194 ,194 ,194 ,194 ,194 ,197 ,197 ,201
	 ,204 ,207 ,207 ,211 ,211 ,211 ,211 ,211 ,207 ,207
	 ,207 ,207 ,211 ,214 ,217 ,224 ,227 ,231 ,234 ,234
	 ,231 ,231 ,231 ,231 ,231 ,231 ,231 ,227 ,224 ,217
	 ,211 ,204 ,197 ,190 ,187 ,184 ,184 ,184 ,187 ,187
	 ,190 ,190 ,194 ,194 ,194 ,194 ,194 ,194 ,194 ,194
	 ,190 ,190 ,187 ,187 ,187 ,187 ,194 ,197 ,207 ,214
	 ,221 ,227 ,234 ,241 ,244 ,248 ,248 ,251 ,251 ,254
	 ,254 ,258 ,258 ,258 ,261 ,261 ,264 ,264 ,264 ,264
	 ,264 ,264 ,264 ,271 ,281 ,298 ,325 ,358 ,398 ,449
	 ,499 ,549 ,593 ,630 ,653 ,663 ,657 ,636 ,596 ,546
	 ,486 ,422 ,362 ,305 ,261 ,227 ,211 ,204 ,211 ,227
	 ,248 ,268 ,284 ,298 ,305 ,308 ,305 ,305 ,301 ,298
	 ,298 ,298 ,298 ,298 ,298 ,298 ,298 ,298 ,298 ,298
	 ,298 ,301 ,305 ,308 ,311 ,311 ,311 ,311 ,308 ,308
	 ,305 ,301 ,301 ,305 ,305 ,308 ,311 ,315 ,315 ,315
	 ,315 ,315 ,315 ,315 ,315 ,318 ,318 ,321 ,321 ,321
	 ,321 ,321 ,321 ,321 ,318 ,321 ,321 ,325 ,328 ,331
	 ,335 ,338 ,338 ,338 ,338 ,338 ,338 ,338 ,338 ,341
	 ,341 ,345 ,345 ,348 ,348 ,348 ,348 ,351 ,355 ,358
	 ,362 ,365 ,372 ,375 ,378 ,382 ,385 ,385 ,388 ,392
	 ,395 ,398 ,405 ,408 ,408 ,412 ,412 ,408 ,405 ,402
	 ,398 ,395 ,392 ,388 ,385 ,378 ,375 ,368 ,365 ,358
	 ,355 ,355 ,351 ,351 ,348 ,345 ,341 ,335 ,328 ,318
	 ,311 ,301 ,294 ,288 ,284 ,281 ,278 ,278 ,278 ,274
	 ,274 ,271 ,271 ,268 ,268 ,264 ,261 ,258 ,254 ,248
	 ,244 ,237 ,234 ,231 ,227 ,227 ,227 ,227 ,231 ,231
	 ,234 ,231 ,231 ,231 ,227 ,224 ,224 ,224 ,224 ,227
	 ,231 ,234 ,237 ,237 ,237 ,237 ,234 ,227 ,224 ,221
	 ,217 ,217 ,221 ,221 ,227 ,231 ,234 ,234 ,237 ,237
	 ,234 ,234 ,234 ,234 ,234 ,234 ,237 ,237 ,237 ,237
	 ,234 ,231 ,227 ,227 ,224 ,224 ,224 ,224 ,227 ,227
	 ,231 ,231 ,231 ,227 ,227 ,224 ,224 ,224 ,224 ,227
	 ,227 ,227 ,227 ,227 ,224 ,221 ,217 ,214 ,214 ,214
	 ,214 ,217 ,217 ,221 ,224 ,224 ,221 ,221 ,217 ,214
	 ,214 ,214 ,217 ,221 ,224 ,227 ,231 ,231 ,227 ,227
	 ,221 ,217 ,214 ,211 ,207 ,207 ,211 ,214 ,217 ,221
	 ,224 ,224 ,227 ,224 ,224 ,224 ,221 ,221 ,224 ,224
	 ,227 ,234 ,237 ,244 ,248 ,251 ,254 ,254 ,254 ,251
	 ,248 ,244 ,241 ,237 ,234 ,234 ,234 ,231 ,231 ,231
	 ,231 ,231 ,227 ,224 ,224 ,221 ,217 ,217 ,214 ,211
	 ,207 ,207 ,204 ,204 ,201 ,201 ,201 ,201 ,201 ,201
	 ,197 ,194 ,190 ,190 ,187 ,187 ,187 ,190 ,190 ,194
	 ,197 ,197 ,197 ,197 ,197 ,197 ,201 ,201 ,204 ,207
	 ,207 ,211 ,207 ,204 ,201 ,194 ,187 ,180 ,174 ,170
	 ,170 ,174 ,180 ,190 ,207 ,227 ,258 ,291 ,335 ,382
	 ,432 ,479 ,519 ,553 ,569 ,569 ,553 ,519 ,472 ,412
	 ,348 ,288 ,231 ,187 ,154 ,133 ,123 ,127 ,133 ,147
	 ,160 ,170 ,180 ,187 ,194 ,194 ,197 ,201 ,204 ,207
	 ,211 ,217 ,221 ,221 ,224 ,224 ,224 ,221 ,217 ,217
	 ,214 ,211 ,211 ,207 ,204 ,204 ,201 ,201 ,204 ,204
	 ,207 ,214 ,221 ,224 ,231 ,234 ,234 ,237 ,237 ,234
	 ,234 ,231 ,231 ,231 ,231 ,231 ,231 ,231 ,231 ,231
	 ,231 ,231 ,234 ,234 ,237 ,241 ,244 ,251 ,254 ,258
	 ,261 ,264 ,268 ,268 ,268 ,268 ,268 ,268 ,268 ,271
	 ,271 ,271 ,274 ,274 ,281 ,284 ,291 ,298 ,305 ,308
	 ,315 ,318 ,321 ,321 ,325 ,325 ,325 ,325 ,325 ,328
	 ,331 ,338 ,341 ,345 ,348 ,351 ,355 ,355 ,355 ,351
	 ,351 ,348 ,341 ,338 ,335 ,331 ,328 ,325 ,325 ,321
	 ,321 ,318 ,315 ,308 ,301 ,291 ,281 ,271 ,261 ,251
	 ,244 ,237 ,234 ,231 ,231 ,227 ,227 ,224 ,221 ,217
	 ,214 ,214 ,211 ,211 ,211 ,211 ,211 ,214 ,214 ,217
	 ,217 ,217 ,217 ,217 ,214 ,214 ,214 ,214 ,214 ,214
	 ,214 ,214 ,211 ,207 ,207 ,204 ,201 ,201 ,201 ,204
	 ,204 ,207 ,211 ,207 ,207 ,204 ,201 ,194 ,190 ,190
	 ,194 ,197 ,201 ,207 ,211 ,214 ,214 ,211 ,207 ,204
	 ,201 ,197 ,197 ,201 ,204 ,207 ,211 ,214 ,214 ,214
	 ,214 ,211 ,211 ,207 ,207 ,211 ,211 ,211 ,211 ,214
	 ,211 ,211 ,211 ,211 ,207 ,207 ,207 ,204 ,204 ,201
	 ,197 ,194 ,190 ,190 ,187 ,187 ,190 ,194 ,197 ,201
	 ,204 ,207 ,207 ,207 ,204 ,201 ,197 ,194 ,194 ,190
	 ,190 ,190 ,194 ,194 ,197 ,197 ,197 ,197 ,197 ,197
	 ,197 ,197 ,197 ,197 ,201 ,201 ,204 ,204 ,207 ,207
	 ,207 ,211 ,211 ,211 ,214 ,217 ,217 ,221 ,221 ,221
	 ,221 ,221 ,217 ,217 ,217 ,217 ,221 ,221 ,224 ,224
	 ,227 ,227 ,227 ,227 ,227 ,227 ,227 ,224 ,224 ,224
	 ,221 ,217 ,214 ,211 ,207 ,201 ,194 ,187 ,184 ,180
	 ,177 ,174 ,174 ,177 ,177 ,180 ,180 ,184 ,180 ,180
	 ,177 ,174 ,170 ,167 ,167 ,164 ,164 ,167 ,167 ,167
	 ,170 ,170 ,170 ,170 ,174 ,174 ,174 ,174 ,174 ,174
	 ,174 ,174 ,174 ,177 ,180 ,180 ,184 ,184 ,180 ,177
	 ,170 ,160 ,154 ,147 ,144 ,147 ,160 ,180 ,211 ,251
	 ,298 ,351 ,408 ,465 ,519 ,563 ,600 ,616 ,616 ,596
	 ,556 ,496 ,425 ,348 ,271 ,204 ,154 ,117 ,100 ,100
	 ,110 ,127 ,147 ,164 ,177 ,184 ,187 ,187 ,187 ,187
	 ,190 ,194 ,197 ,201 ,201 ,201 ,197 ,194 ,194 ,190
	 ,190 ,190 ,194 ,194 ,197 ,194 ,194 ,190 ,184 ,180
	 ,180 ,180 ,180 ,187 ,190 ,197 ,201 ,207 ,211 ,211
	 ,214 ,214 ,217 ,217 ,221 ,221 ,221 ,224 ,221 ,221
	 ,221 ,221 ,221 ,221 ,221 ,224 ,227 ,227 ,231 ,234
	 ,234 ,234 ,234 ,237 ,237 ,237 ,241 ,241 ,244 ,248
	 ,251 ,254 ,258 ,261 ,264 ,271 ,278 ,281 ,291 ,298
	 ,305 ,308 ,315 ,315 ,318 ,318 ,318 ,318 ,318 ,321
	 ,321 ,328 ,331 ,338 ,341 ,345 ,348 ,351 ,351 ,348
	 ,348 ,345 ,345 ,345 ,345 ,348 ,351 ,355 ,358 ,362
	 ,365 ,365 ,365 ,365 ,362 ,358 ,351 ,348 ,345 ,341
	 ,335 ,331 ,328 ,325 ,325 ,321 ,321 ,318 ,318 ,315
	 ,311 ,308 ,305 ,301 ,294 ,291 ,291 ,288 ,288 ,288
	 ,288 ,288 ,288 ,288 ,284 ,284 ,281 ,281 ,281 ,281
	 ,281 ,281 ,281 ,278 ,278 ,274 ,271 ,271 ,268 ,268
	 ,268 ,268 ,271 ,271 ,274 ,274 ,278 ,278 ,274 ,274
	 ,274 ,271 ,274 ,274 ,278 ,278 ,281 ,281 ,284 ,284
	 ,284 ,281 ,281 ,281 ,284 ,284 ,288 ,288 ,288 ,291
	 ,291 ,291 ,291 ,291 ,288 ,288 ,288 ,288 ,284 ,284
	 ,281 ,278 ,278 ,274 ,274 ,274 ,271 ,271 ,271 ,271
	 ,268 ,268 ,264 ,264 ,264 ,264 ,264 ,264 ,264 ,261
	 ,258 ,254 ,251 ,244 ,241 ,241 ,241 ,241 ,241 ,244
	 ,248 ,248 ,248 ,248 ,248 ,244 ,244 ,244 ,241 ,241
	 ,237 ,237 ,237 ,234 ,234 ,231 ,231 ,227 ,227 ,227
	 ,224 ,224 ,224 ,224 ,224 ,224 ,224 ,224 ,227 ,231
	 ,231 ,234 ,237 ,237 ,241 ,241 ,237 ,237 ,234 ,231
	 ,227 ,224 ,221 ,217 ,217 ,217 ,221 ,224 ,227 ,231
	 ,234 ,237 ,241 ,244 ,248 ,251 ,251 ,254 ,254 ,254
	 ,251 ,248 ,241 ,234 ,224 ,214 ,207 ,197 ,194 ,187
	 ,187 ,184 ,187 ,187 ,190 ,190 ,190 ,190 ,190 ,190
	 ,190 ,190 ,190 ,190 ,190 ,187 ,187 ,187 ,184 ,184
	 ,180 ,180 ,180 ,180 ,180 ,180 ,184 ,184 ,184 ,184
	 ,184 ,184 ,184 ,184 ,180 ,180 ,177 ,177 ,174 ,174
	 ,170 ,167 ,164 ,160 ,157 ,157 ,160 ,170 ,187 ,217
	 ,254 ,301 ,358 ,422 ,486 ,546 ,600 ,640 ,663 ,663
	 ,643 ,603 ,543 ,469 ,392 ,315 ,241 ,184 ,144 ,120
	 ,110 ,117 ,130 ,147 ,167 ,180 ,190 ,197 ,201 ,204
	 ,204 ,204 ,207 ,211 ,214 ,214 ,217 ,217 ,214 ,211
	 ,207 ,207 ,207 ,207 ,207 ,211 ,214 ,217 ,217 ,217
	 ,217 ,217 ,217 ,214 ,214 ,211 ,211 ,214 ,214 ,214
	 ,217 ,221 ,221 ,224 ,227 ,227 ,231 ,231 ,234 ,234
	 ,231 ,231 ,227 ,227 ,227 ,227 ,231 ,234 ,241 ,248
	 ,251 ,258 ,261 ,261 ,261 ,261 ,261 ,261 ,261 ,264
	 ,268 ,271 ,274 ,278 ,281 ,284 ,288 ,291 ,298 ,301
	 ,308 ,315 ,321 ,328 ,331 ,335 ,335 ,335 ,335 ,335
	 ,335 ,335 ,338 ,341 ,348 ,351 ,355 ,355 ,358 ,355
	 ,355 ,355 ,351 ,351 ,351 ,355 ,355 ,355 ,358 ,355
	 ,351 ,348 ,341 ,335 ,325 ,318 ,311 ,308 ,301 ,298
	 ,298 ,294 ,291 ,288 ,284 ,278 ,271 ,264 ,261 ,254
	 ,251 ,248 ,244 ,241 ,237 ,234 ,231 ,227 ,224 ,224
	 ,224 ,224 ,224 ,227 ,227 ,227 ,227 ,224 ,224 ,221
	 ,217 ,217 ,214 ,214 ,214 ,214 ,211 ,211 ,211 ,207
	 ,207 ,204 ,204 ,204 ,204 ,204 ,204 ,201 ,201 ,201
	 ,201 ,201 ,201 ,201 ,204 ,207 ,211 ,214 ,217 ,221
	 ,221 ,224 ,224 ,224 ,224 ,224 ,224 ,221 ,221 ,217
	 ,214 ,211 ,211 ,207 ,204 ,204 ,204 ,204 ,207 ,211
	 ,211 ,214 ,217 ,221 ,221 ,221 ,221 ,221 ,217 ,214
	 ,214 ,211 ,211 ,211 ,211 ,211 ,214 ,214 ,214 ,211
	 ,211 ,207 ,204 ,201 ,201 ,197 ,197 ,197 ,201 ,204
	 ,207 ,211 ,211 ,214 ,214 ,214 ,211 ,207 ,207 ,204
	 ,201 ,197 ,197 ,197 ,197 ,201 ,201 ,204 ,204 ,204
	 ,204 ,207 ,207 ,207 ,207 ,211 ,211 ,211 ,214 ,214
	 ,214 ,214 ,214 ,211 ,211 ,211 ,211 ,211 ,211 ,211
	 ,214 ,214 ,214 ,214 ,214 ,211 ,211 ,211 ,211 ,211
	 ,211 ,211 ,214 ,214 ,217 ,217 ,221 ,221 ,221 ,221
	 ,221 ,221 ,224 ,224 ,227 ,231 ,234 ,237 ,241 ,244
	 ,248 ,248 ,248 ,248 ,248 ,248 ,244 ,244 ,241 ,237
	 ,237 ,234 ,231 ,227 ,224 ,217 ,214 ,211 ,207 ,207
	 ,207 ,207 ,207 ,207 ,207 ,207 ,204 ,204 ,204 ,201
	 ,201 ,201 ,197 ,197 ,197 ,197 ,197 ,197 ,197 ,194
	 ,197 ,197 ,197 ,201 ,201 ,201 ,201 ,197 ,194 ,190
	 ,187 ,184 ,180 ,180 ,180 ,184 ,187 ,190 ,190 ,187
	 ,184 ,177 ,170 ,164 ,167 ,174 ,187 ,214 ,248 ,291
	 ,341 ,398 ,455 ,512 ,563 ,606 ,636 ,650 ,643 ,616
	 ,573 ,512 ,442 ,365 ,291 ,224 ,174 ,140 ,123 ,120
	 ,130 ,147 ,167 ,184 ,194 ,201 ,204 ,201 ,201 ,201
	 ,201 ,204 ,211 ,214 ,221 ,221 ,221 ,217 ,214 ,211
	 ,207 ,204 ,207 ,207 ,214 ,217 ,221 ,224 ,227 ,227
	 ,227 ,227 ,227 ,227 ,227 ,227 ,227 ,227 ,227 ,231
	 ,231 ,231 ,234 ,234 ,237 ,237 ,241 ,241 ,241 ,237
	 ,237 ,237 ,241 ,241 ,248 ,251 ,258 ,261 ,264 ,268
	 ,268 ,268 ,264 ,264 ,261 ,264 ,268 ,271 ,278 ,281
	 ,288 ,291 ,291 ,294 ,291 ,291 ,291 ,294 ,298 ,301
	 ,308 ,315 ,318 ,325 ,328 ,331 ,335 ,335 ,338 ,338
	 ,341 ,345 ,348 ,351 ,355 ,358 ,365 ,368 ,372 ,375
	 ,378 ,378 ,375 ,372 ,368 ,362 ,358 ,351 ,348 ,345
	 ,341 ,338 ,335 ,328 ,321 ,311 ,301 ,291 ,284 ,278
	 ,274 ,271 ,271 ,271 ,271 ,268 ,264 ,261 ,254 ,244
	 ,237 ,231 ,224 ,224 ,221 ,221 ,221 ,221 ,221 ,221
	 ,217 ,214 ,214 ,211 ,207 ,204 ,201 ,197 ,197 ,194
	 ,190 ,190 ,190 ,194 ,194 ,197 ,201 ,204 ,207 ,207
	 ,207 ,207 ,207 ,204 ,204 ,204 ,204 ,204 ,207 ,207
	 ,207 ,207 ,204 ,204 ,204 ,201 ,201 ,204 ,204 ,204
	 ,207 ,207 ,207 ,207 ,207 ,207 ,207 ,207 ,207 ,207
	 ,211 ,211 ,214 ,214 ,214 ,217 ,214 ,214 ,214 ,211
	 ,211 ,211 ,211 ,211 ,214 ,214 ,217 ,217 ,217 ,217
	 ,214 ,214 ,211 ,207 ,204 ,204 ,204 ,204 ,207 ,211
	 ,214 ,217 ,221 ,221 ,217 ,214 ,211 ,207 ,201 ,201
	 ,197 ,201 ,204 ,207 ,217 ,224 ,234 ,241 ,248 ,254
	 ,261 ,264 ,268 ,268 ,271 ,271 ,271 ,274 ,274 ,274
	 ,278 ,278 ,278 ,274 ,274 ,274 ,274 ,274 ,274 ,274
	 ,274 ,278 ,281 ,281 ,284 ,284 ,284 ,284 ,281 ,281
	 ,278 ,274 ,274 ,271 ,271 ,271 ,274 ,278 ,281 ,284
	 ,291 ,294 ,298 ,298 ,298 ,298 ,298 ,294 ,294 ,294
	 ,294 ,294 ,298 ,301 ,305 ,308 ,311 ,311 ,315 ,315
	 ,315 ,315 ,315 ,315 ,315 ,311 ,311 ,308 ,305 ,301
	 ,294 ,288 ,281 ,274 ,268 ,261 ,258 ,258 ,254 ,254
	 ,258 ,258 ,261 ,261 ,261 ,261 ,261 ,258 ,258 ,258
	 ,254 ,251 ,248 ,244 ,241 ,237 ,234 ,234 ,231 ,231
	 ,227 ,227 ,227 ,231 ,231 ,231 ,231 ,234 ,234 ,234
	 ,234 ,234 ,234 ,234 ,234 ,234 ,231 ,227 ,221 ,217
	 ,211 ,207 ,211 ,217 ,234 ,258 ,294 ,338 ,392 ,449
	 ,509 ,569 ,620 ,660 ,680 ,683 ,663 ,626 ,569 ,499
	 ,422 ,345 ,278 ,221 ,177 ,154 ,144 ,147 ,160 ,174
	 ,190 ,204 ,211 ,217 ,217 ,217 ,217 ,217 ,221 ,224
	 ,227 ,231 ,231 ,231 ,227 ,224 ,221 ,217 ,217 ,217
	 ,221 ,224 ,227 ,231 ,231 ,231 ,227 ,224 ,221 ,221
	 ,221 ,221 ,224 ,231 ,234 ,241 ,244 ,244 ,244 ,244
	 ,244 ,241 ,241 ,241 ,241 ,241 ,244 ,244 ,248 ,251
	 ,251 ,251 ,251 ,248 ,248 ,244 ,244 ,244 ,244 ,244
	 ,248 ,251 ,251 ,251 ,254 ,254 ,254 ,258 ,261 ,264
	 ,271 ,278 ,284 ,291 ,298 ,305 ,308 ,315 ,318 ,321
	 ,325 ,328 ,331 ,335 ,338 ,338 ,341 ,341 ,341 ,341
	 ,345 ,345 ,348 ,351 ,355 ,358 ,362 ,362 ,365 ,365
	 ,362 ,362 ,358 ,355 ,351 ,345 ,341 ,338 ,331 ,328
	 ,321 ,311 ,305 ,298 ,288 ,281 ,274 ,271 ,264 ,261
	 ,258 ,254 ,251 ,244 ,237 ,234 ,227 ,224 ,221 ,217
	 ,214 ,214 ,211 ,211 ,207 ,201 ,197 ,190 ,187 ,184
	 ,180 ,180 ,180 ,184 ,184 ,187 ,187 ,187 ,187 ,187
	 ,187 ,184 ,184 ,187 ,187 ,190 ,190 ,194 ,194 ,194
	 ,194 ,190 ,190 ,190 ,194 ,194 ,194 ,194 ,194 ,194
	 ,194 ,190 ,190 ,190 ,190 ,194 ,197 ,201 ,204 ,207
	 ,211 ,211 ,211 ,211 ,207 ,204 ,204 ,201 ,201 ,201
	 ,204 ,204 ,207 ,207 ,211 ,211 ,211 ,207 ,207 ,204
	 ,204 ,201 ,197 ,197 ,197 ,197 ,197 ,197 ,197 ,197
	 ,197 ,197 ,197 ,197 ,194 ,194 ,194 ,194 ,194 ,194
	 ,194 ,194 ,194 ,194 ,194 ,194 ,190 ,190 ,190 ,187
	 ,187 ,187 ,190 ,190 ,194 ,194 ,197 ,197 ,197 ,197
	 ,194 ,190 ,190 ,187 ,187 ,184 ,184 ,187 ,187 ,187
	 ,187 ,184 ,184 ,180 ,180 ,180 ,180 ,184 ,184 ,190
	 ,194 ,194 ,197 ,194 ,194 ,190 ,187 ,184 ,180 ,180
	 ,180 ,184 ,184 ,184 ,187 ,187 ,184 ,184 ,184 ,184
	 ,184 ,187 ,190 ,194 ,197 ,204 ,204 ,207 ,207 ,207
	 ,204 ,204 ,201 ,201 ,201 ,201 ,201 ,201 ,204 ,207
	 ,211 ,214 ,217 ,224 ,227 ,231 ,234 ,234 ,234 ,234
	 ,231 ,231 ,231 ,231 ,234 ,237 ,237 ,241 ,241 ,241
	 ,237 ,231 ,224 ,217 ,211 ,204 ,201 ,197 ,194 ,197
	 ,197 ,201 ,201 ,201 ,204 ,201 ,201 ,201 ,201 ,197
	 ,197 ,197 ,197 ,194 ,194 ,190 ,190 ,187 ,187 ,187
	 ,187 ,187 ,190 ,194 ,194 ,197 ,197 ,194 ,190 ,187
	 ,184 ,180 ,177 ,174 ,174 ,174 ,174 ,174 ,174 ,174
	 ,170 ,167 ,167 ,170 ,180 ,197 ,224 ,261 ,305 ,358
	 ,415 ,472 ,529 ,583 ,623 ,653 ,663 ,657 ,630 ,583
	 ,522 ,449 ,375 ,301 ,234 ,184 ,150 ,133 ,133 ,144
	 ,160 ,180 ,197 ,211 ,217 ,221 ,217 ,214 ,211 ,211
	 ,211 ,211 ,214 ,214 ,214 ,214 ,211 ,207 ,207 ,207
	 ,211 ,217 ,224 ,231 ,234 ,234 ,234 ,231 ,227 ,224
	 ,221 ,221 ,224 ,227 ,234 ,241 ,248 ,251 ,251 ,251
	 ,248 ,248 ,244 ,241 ,241 ,241 ,241 ,241 ,244 ,244
	 ,244 ,244 ,248 ,248 ,251 ,251 ,254 ,258 ,258 ,258
	 ,261 ,261 ,261 ,261 ,261 ,264 ,268 ,271 ,274 ,278
	 ,281 ,284 ,288 ,288 ,291 ,291 ,294 ,301 ,305 ,311
	 ,321 ,328 ,338 ,345 ,351 ,355 ,358 ,358 ,358 ,358
	 ,358 ,362 ,365 ,368 ,372 ,378 ,382 ,385 ,388 ,388
	 ,388 ,385 ,382 ,382 ,382 ,378 ,378 ,375 ,372 ,368
	 ,362 ,355 ,345 ,338 ,331 ,325 ,318 ,315 ,311 ,305
	 ,301 ,294 ,288 ,281 ,274 ,268 ,264 ,261 ,258 ,258
	 ,254 ,254 ,251 ,248 ,241 ,237 ,234 ,234 ,231 ,231
	 ,234 ,234 ,234 ,234 ,234 ,231 ,231 ,231 ,231 ,231
	 ,231 ,231 ,231 ,234 ,234 ,234 ,234 ,234 ,234 ,234
	 ,234 ,234 ,231 ,231 ,227 ,221 ,217 ,217 ,214 ,217
	 ,221 ,224 ,231 ,237 ,244 ,248 ,248 ,248 ,244 ,241
	 ,237 ,234 ,231 ,234 ,237 ,241 ,248 ,251 ,254 ,258
	 ,258 ,254 ,251 ,248 ,241 ,234 ,231 ,227 ,224 ,224
	 ,224 ,224 ,224 ,227 ,231 ,234 ,234 ,237 ,237 ,241
	 ,241 ,237 ,237 ,234 ,231 ,231 ,227 ,227 ,224 ,224
	 ,224 ,224 ,224 ,224 ,224 ,224 ,224 ,224 ,221 ,221
	 ,221 ,221 ,221 ,221 ,221 ,221 ,221 ,221 ,221 ,221
	 ,221 ,221 ,217 ,217 ,217 ,217 ,217 ,217 ,221 ,221
	 ,221 ,221 ,217 ,217 ,221 ,221 ,221 ,221 ,221 ,224
	 ,224 ,224 ,224 ,224 ,227 ,227 ,227 ,227 ,227 ,227
	 ,224 ,224 ,224 ,224 ,224 ,224 ,224 ,221 ,221 ,221
	 ,217 ,214 ,214 ,211 ,207 ,207 ,207 ,211 ,211 ,214
	 ,217 ,221 ,224 ,227 ,227 ,231 ,234 ,234 ,237 ,237
	 ,237 ,237 ,237 ,237 ,237 ,237 ,237 ,234 ,234 ,234
	 ,234 ,234 ,237 ,241 ,244 ,248 ,251 ,254 ,258 ,258
	 ,258 ,254 ,254 ,251 ,248 ,248 ,244 ,241 ,241 ,237
	 ,234 ,234 ,231 ,227 ,224 ,224 ,221 ,221 ,217 ,217
	 ,214 ,214 ,211 ,211 ,211 ,211 ,211 ,211 ,211 ,211
	 ,207 ,207 ,204 ,204 ,201 ,201 ,201 ,201 ,201 ,204
	 ,204 ,204 ,204 ,204 ,204 ,201 ,201 ,197 ,197 ,197
	 ,201 ,204 ,204 ,204 ,204 ,204 ,201 ,194 ,190 ,184
	 ,180 ,184 ,190 ,204 ,227 ,258 ,298 ,345 ,402 ,459
	 ,516 ,573 ,620 ,657 ,680 ,683 ,667 ,630 ,576 ,509
	 ,439 ,365 ,294 ,237 ,194 ,164 ,150 ,147 ,157 ,170
	 ,184 ,197 ,211 ,217 ,221 ,221 ,221 ,221 ,217 ,217
	 ,214 ,214 ,214 ,214 ,211 ,211 ,207 ,207 ,207 ,207
	 ,207 ,207 ,211 ,211 ,214 ,217 ,217 ,221 ,224 ,227
	 ,231 ,231 ,231 ,231 ,231 ,227 ,227 ,224 ,224 ,224
	 ,224 ,227 ,231 ,234 ,237 ,241 ,244 ,248 ,251 ,254
	 ,258 ,258 ,258 ,254 ,254 ,254 ,251 ,251 ,254 ,254
	 ,258 ,261 ,264 ,268 ,268 ,271 ,271 ,271 ,271 ,274
	 ,274 ,278 ,281 ,288 ,291 ,298 ,301 ,308 ,311 ,315
	 ,318 ,321 ,328 ,331 ,335 ,341 ,345 ,348 ,355 ,358
	 ,362 ,362 ,365 ,368 ,372 ,375 ,378 ,382 ,382 ,382
	 ,382 ,382 ,382 ,378 ,378 ,372 ,368 ,362 ,351 ,345
	 ,335 ,325 ,318 ,311 ,305 ,301 ,294 ,291 ,288 ,281
	 ,274 ,271 ,264 ,261 ,258 ,254 ,251 ,248 ,248 ,244
	 ,241 ,237 ,237 ,234 ,231 ,231 ,227 ,227 ,227 ,224
	 ,224 ,221 ,221 ,217 ,217 ,214 ,214 ,211 ,211 ,207
	 ,204 ,204 ,201 ,197 ,197 ,197 ,197 ,201 ,204 ,211
	 ,214 ,221 ,224 ,227 ,231 ,231 ,231 ,231 ,227 ,224
	 ,221 ,217 ,214 ,211 ,211 ,211 ,211 ,214 ,214 ,217
	 ,217 ,217 ,217 ,217 ,217 ,217 ,214 ,214 ,214 ,214
	 ,217 ,221 ,221 ,224 ,227 ,227 ,227 ,227 ,227 ,224
	 ,221 ,221 ,217 ,217 ,217 ,221 ,224 ,227 ,231 ,234
	 ,237 ,241 ,241 ,244 ,244 ,244 ,241 ,241 ,237 ,237
	 ,234 ,231 ,227 ,227 ,224 ,221 ,217 ,217 ,217 ,217
	 ,221 ,221 ,224 ,227 ,227 ,231 ,231 ,231 ,231 ,227
	 ,227 ,224 ,224 ,224 ,224 ,224 ,224 ,227 ,227 ,231
	 ,231 ,227 ,227 ,224 ,224 ,221 ,221 ,217 ,217 ,217
	 ,217 ,217 ,217 ,217 ,217 ,217 ,217 ,217 ,217 ,217
	 ,221 ,221 ,221 ,221 ,221 ,217 ,217 ,214 ,214 ,211
	 ,207 ,207 ,207 ,207 ,207 ,207 ,211 ,214 ,214 ,214
	 ,217 ,217 ,217 ,217 ,217 ,217 ,214 ,214 ,214 ,214
	 ,214 ,214 ,211 ,211 ,207 ,204 ,204 ,201 ,201 ,204
	 ,207 ,211 ,214 ,221 ,224 ,231 ,234 ,234 ,234 ,234
	 ,234 ,231 ,227 ,224 ,224 ,221 ,221 ,224 ,224 ,227
	 ,227 ,231 ,237 ,241 ,244 ,248 ,251 ,254 ,254 ,254
	 ,254 ,251 ,248 ,244 ,237 ,231 ,224 ,221 ,217 ,211
	 ,211 ,207 ,204 ,204 ,201 ,201 ,201 ,197 ,197 ,197
	 ,197 ,194 ,194 ,194 ,194 ,194 ,197 ,197 ,197 ,201
	 ,201 ,201 ,204 ,201 ,201 ,201 ,197 ,197 ,194 ,194
	 ,190 ,190 ,190 ,190 ,187 ,187 ,187 ,190 ,190 ,190
	 ,194 ,190 ,190 ,187 ,180 ,174 ,167 ,164 ,160 ,167
	 ,177 ,197 ,227 ,264 ,311 ,362 ,419 ,476 ,533 ,583
	 ,623 ,653 ,663 ,657 ,626 ,579 ,516 ,442 ,368 ,294
	 ,234 ,187 ,157 ,140 ,140 ,150 ,164 ,177 ,190 ,197
	 ,201 ,201 ,201 ,201 ,201 ,201 ,207 ,211 ,214 ,217
	 ,221 ,221 ,221 ,217 ,214 ,214 ,211 ,211 ,211 ,214
	 ,217 ,217 ,221 ,224 ,224 ,224 ,224 ,224 ,224 ,224
	 ,224 ,224 ,224 ,227 ,227 ,234 ,237 ,241 ,244 ,244
	 ,248 ,248 ,248 ,248 ,244 ,244 ,244 ,244 ,248 ,248
	 ,248 ,248 ,248 ,248 ,248 ,248 ,248 ,251 ,254 ,261
	 ,268 ,274 ,281 ,288 ,291 ,294 ,294 ,294 ,294 ,291
	 ,291 ,291 ,291 ,294 ,298 ,305 ,311 ,315 ,321 ,325
	 ,331 ,335 ,338 ,341 ,345 ,348 ,351 ,355 ,358 ,362
	 ,365 ,368 ,368 ,372 ,372 ,372 ,372 ,375 ,375 ,375
	 ,375 ,375 ,372 ,368 ,365 ,362 ,355 ,351 ,345 ,338
	 ,335 ,325 ,318 ,311 ,301 ,291 ,284 ,278 ,271 ,264
	 ,261 ,258 ,258 ,254 ,254 ,251 ,248 ,244 ,241 ,237
	 ,234 ,231 ,227 ,227 ,224 ,224 ,224 ,224 ,221 ,221
	 ,217 ,217 ,217 ,217 ,217 ,217 ,217 ,217 ,214 ,214
	 ,211 ,211 ,207 ,204 ,204 ,204 ,207 ,211 ,214 ,217
	 ,221 ,224 ,227 ,227 ,231 ,231 ,231 ,231 ,227 ,224
	 ,221 ,217 ,214 ,214 ,211 ,211 ,211 ,211 ,211 ,214
	 ,214 ,214 ,217 ,217 ,217 ,221 ,221 ,221 ,224 ,224
	 ,224 ,224 ,224 ,224 ,224 ,224 ,224 ,227 ,227 ,231
	 ,234 ,234 ,237 ,237 ,234 ,234 ,231 ,231 ,227 ,224
	 ,221 ,221 ,221 ,217 ,217 ,217 ,217 ,217 ,217 ,217
	 ,217 ,217 ,217 ,217 ,217 ,221 ,221 ,224 ,224 ,227
	 ,227 ,227 ,224 ,221 ,217 ,214 ,211 ,211 ,211 ,211
	 ,214 ,217 ,221 ,224 ,227 ,227 ,224 ,221 ,217 ,214
	 ,214 ,211 ,211 ,214 ,214 ,217 ,221 ,221 ,221 ,217
	 ,217 ,214 ,211 ,211 ,211 ,211 ,214 ,217 ,217 ,221
	 ,221 ,221 ,217 ,214 ,211 ,207 ,207 ,207 ,211 ,214
	 ,217 ,221 ,221 ,224 ,224 ,221 ,221 ,217 ,214 ,214
	 ,211 ,211 ,211 ,211 ,211 ,214 ,214 ,214 ,214 ,217
	 ,214 ,214 ,214 ,214 ,214 ,217 ,221 ,224 ,227 ,234
	 ,237 ,241 ,241 ,241 ,241 ,237 ,231 ,227 ,227 ,227
	 ,231 ,234 ,244 ,251 ,261 ,268 ,271 ,274 ,271 ,268
	 ,261 ,254 ,251 ,244 ,241 ,241 ,241 ,241 ,241 ,241
	 ,241 ,241 ,237 ,234 ,231 ,224 ,217 ,214 ,211 ,204
	 ,204 ,201 ,201 ,201 ,204 ,204 ,204 ,204 ,204 ,204
	 ,204 ,207 ,207 ,211 ,214 ,217 ,217 ,217 ,217 ,214
	 ,211 ,207 ,204 ,204 ,201 ,201 ,197 ,197 ,197 ,194
	 ,194 ,194 ,194 ,197 ,201 ,207 ,211 ,211 ,211 ,207
	 ,201 ,190 ,184 ,180 ,184 ,194 ,214 ,244 ,284 ,328
	 ,382 ,435 ,486 ,536 ,579 ,613 ,630 ,633 ,616 ,583
	 ,533 ,469 ,398 ,325 ,258 ,201 ,160 ,137 ,130 ,137
	 ,150 ,170 ,187 ,204 ,214 ,217 ,221 ,221 ,224 ,224
	 ,227 ,231 ,231 ,234 ,237 ,237 ,237 ,234 ,234 ,237
	 ,237 ,241 ,244 ,244 ,248 ,248 ,244 ,244 ,241 ,237
	 ,237 ,241 ,244 ,244 ,248 ,251 ,251 ,251 ,251 ,251
	 ,248 ,248 ,248 ,248 ,248 ,248 ,251 ,251 ,254 ,254
	 ,258 ,261 ,264 ,268 ,271 ,274 ,278 ,278 ,278 ,274
	 ,274 ,271 ,274 ,274 ,278 ,281 ,284 ,288 ,291 ,291
	 ,294 ,294 ,298 ,298 ,301 ,305 ,311 ,315 ,318 ,321
	 ,325 ,328 ,331 ,335 ,335 ,338 ,345 ,348 ,355 ,362
	 ,368 ,372 ,378 ,382 ,385 ,385 ,388 ,388 ,388 ,388
	 ,385 ,385 ,382 ,378 ,378 ,375 ,372 ,372 ,372 ,368
	 ,368 ,365 ,362 ,358 ,351 ,345 ,338 ,331 ,325 ,318
	 ,311 ,305 ,298 ,291 ,284 ,278 ,271 ,261 ,254 ,248
	 ,241 ,237 ,237 ,237 ,237 ,237 ,237 ,237 ,237 ,234
	 ,234 ,231 ,231 ,231 ,231 ,231 ,227 ,227 ,227 ,224
	 ,224 ,221 ,221 ,221 ,221 ,221 ,224 ,227 ,231 ,231
	 ,231 ,231 ,227 ,227 ,224 ,224 ,224 ,221 ,224 ,224
	 ,224 ,224 ,224 ,224 ,224 ,227 ,227 ,227 ,231 ,231
	 ,234 ,234 ,234 ,234 ,234 ,234 ,234 ,234 ,234 ,237
	 ,237 ,241 ,241 ,241 ,241 ,237 ,234 ,231 ,227 ,224
	 ,221 ,224 ,224 ,227 ,227 ,231 ,231 ,231 ,231 ,231
	 ,231 ,231 ,231 ,231 ,231 ,231 ,231 ,227 ,227 ,224
	 ,221 ,221 ,217 ,217 ,221 ,221 ,221 ,224 ,224 ,224
	 ,224 ,221 ,217 ,217 ,214 ,211 ,211 ,211 ,211 ,211
	 ,211 ,211 ,211 ,211 ,214 ,214 ,214 ,217 ,221 ,224
	 ,224 ,227 ,227 ,227 ,227 ,224 ,221 ,217 ,214 ,214
	 ,211 ,207 ,204 ,204 ,204 ,204 ,207 ,207 ,211 ,214
	 ,214 ,217 ,217 ,214 ,214 ,214 ,211 ,211 ,211 ,211
	 ,214 ,214 ,217 ,217 ,217 ,217 ,214 ,211 ,207 ,207
	 ,204 ,204 ,204 ,207 ,207 ,211 ,214 ,214 ,217 ,217
	 ,217 ,214 ,214 ,214 ,214 ,214 ,214 ,217 ,217 ,221
	 ,221 ,221 ,221 ,221 ,221 ,224 ,227 ,231 ,231 ,234
	 ,237 ,241 ,241 ,241 ,237 ,237 ,234 ,234 ,234 ,234
	 ,237 ,241 ,241 ,244 ,248 ,248 ,248 ,248 ,248 ,248
	 ,244 ,244 ,248 ,248 ,248 ,248 ,251 ,248 ,248 ,244
	 ,244 ,241 ,234 ,231 ,227 ,224 ,224 ,221 ,221 ,217
	 ,217 ,217 ,217 ,217 ,217 ,217 ,214 ,214 ,211 ,211
	 ,211 ,211 ,214 ,214 ,217 ,217 ,217 ,217 ,214 ,214
	 ,211 ,211 ,211 ,211 ,211 ,211 ,214 ,211 ,211 ,207
	 ,207 ,204 ,204 ,204 ,204 ,204 ,204 ,204 ,201 ,194
	 ,190 ,190 ,197 ,211 ,231 ,264 ,308 ,358 ,415 ,472
	 ,529 ,579 ,620 ,647 ,657 ,650 ,623 ,579 ,519 ,452
	 ,378 ,305 ,241 ,190 ,154 ,133 ,130 ,140 ,157 ,177
	 ,197 ,211 ,221 ,224 ,221 ,217 ,214 ,211 ,207 ,207
	 ,204 ,204 ,204 ,204 ,204 ,207 ,207 ,214 ,217 ,224
	 ,227 ,231 ,234 ,234 ,231 ,231 ,227 ,227 ,227 ,227
	 ,227 ,231 ,231 ,231 ,231 ,231 ,231 ,231 ,231 ,231
	 ,231 ,234 ,234 ,234 ,237 ,237 ,237 ,237 ,237 ,241
	 ,241 ,244 ,248 ,248 ,251 ,251 ,251 ,251 ,254 ,254
	 ,254 ,258 ,261 ,264 ,268 ,271 ,278 ,281 ,284 ,288
	 ,291 ,291 ,294 ,298 ,301 ,308 ,311 ,315 ,321 ,325
	 ,328 ,331 ,335 ,338 ,341 ,345 ,348 ,351 ,355 ,358
	 ,358 ,362 ,365 ,365 ,368 ,368 ,372 ,372 ,375 ,375
	 ,378 ,382 ,382 ,385 ,385 ,385 ,382 ,375 ,372 ,362
	 ,355 ,348 ,338 ,331 ,325 ,318 ,315 ,308 ,301 ,294
	 ,288 ,284 ,278 ,274 ,271 ,271 ,268 ,264 ,261 ,258
	 ,254 ,251 ,248 ,244 ,241 ,241 ,241 ,241 ,241 ,241
	 ,237 ,237 ,234 ,231 ,231 ,227 ,227 ,227 ,227 ,227
	 ,227 ,227 ,227 ,227 ,227 ,224 ,224 ,224 ,224 ,224
};