0	0.03825
0.002	0.0111153886513551
0.004	-0.0101638351010091
0.006	-0.0125655868504018
0.008	0.00195205803874223
0.01	0.00874429495415054
0.012	0.0182427304515231
0.014	0.0148856889115098
0.016	0.00444497567736704
0.018	-0.013758495468174
0.02	-0.0300633909777092
0.022	-0.030957691190969
0.024	-0.010777855144975
0.026	0.0106217618040616
0.028	0.0293261813460759
0.03	0.0369788696740969
0.032	0.0307131217092966
0.034	0.0134334251241212
0.036	-0.00445138317522238
0.038	-0.0228472893642224
0.04	-0.0127671151375484
0.042	-0.00269382218028151
0.044	0.00692957770227917
0.046	0.0118325991944723
0.048	0.0144064824500985
0.05	0.00700000000000001
0.052	-0.00294874310190467
0.054	-0.0014432789694702
0.056	0.0123090122060218
0.058	0.0308331424052836
0.06	0.0532671151375483
0.062	0.0734579691392203
0.064	0.0774627932669214
0.066	0.0684272546508767
0.068	0.0613291389425096
0.07	0.0592711303259031
0.072	0.0649660793057302
0.074	0.0734889179709362
0.076	0.0815392652366738
0.078	0.0725683709659669
0.08	0.0638133909777092
0.082	0.0441478156931761
0.084	0.0147936142309341
0.086	-0.00224636868650759
0.088	-0.0090349911033293
0.09	0.00300570504584934
0.092	0.0185056813094515
0.094	0.0274549070754039
0.096	0.0316524250093102
0.098	0.0192739315736471
0.1	0.00225000000000006
0.102	-0.0125239315736469
0.104	-0.0226524250093101
0.106	-0.022954907075404
0.108	-0.0027556813094517
0.11	0.0104942949541505
0.112	0.00903499110332928
0.114	-3.63131349229639E-06
0.116	-0.021543614230934
0.118	-0.050897815693176
0.12	-0.0750633909777091
0.122	-0.088318370965967
0.124	-0.0860392652366739
0.126	-0.0689889179709364
0.128	-0.0582160793057303
0.13	-0.0592711303259031
0.132	-0.0635791389425094
0.134	-0.0729272546508766
0.136	-0.0909627932669213
0.138	-0.0869579691392203
0.14	-0.0757671151375484
0.142	-0.0578331424052839
0.144	-0.0348090122060221
0.146	-0.0255567210305299
0.148	-0.0195512568980952
0.15	-0.0249999999999998
0.152	-0.0346564824500985
0.154	-0.0365825991944723
0.156	-0.0451795777022793
0.158	-0.0468061778197186
0.16	-0.0367328848624516
0.162	-0.0311527106357776
0.164	-0.0427986168247776
0.166	-0.0561834251241212
0.168	-0.0622131217092965
0.17	-0.0729788696740969
0.172	-0.065326181346076
0.174	-0.051121761804062
0.176	-0.0364721448550252
0.178	-0.0297923088090312
0.18	-0.0284366090222907
0.182	-0.0334915045318258
0.184	-0.0494449756773668
0.186	-0.0553856889115096
0.188	-0.0542427304515232
0.19	-0.0469942949541507
0.192	-0.0334520580387423
0.194	-0.0256844131495982
0.196	-0.0325861648989909
0.198	-0.0448653886513552
0.2	-0.07425
0.202	-0.0991346113486448
0.204	-0.118163835101009
0.206	-0.111565586850402
0.208	-0.101547941961258
0.21	-0.0812557050458496
0.212	-0.0672572695484769
0.214	-0.0616143110884902
0.216	-0.0743050243226328
0.218	-0.0902584954681738
0.22	-0.0953133909777091
0.222	-0.082707691190969
0.224	-0.0670278551449752
0.226	-0.0388782381959384
0.228	-0.0201738186539241
0.23	-0.010271130325903
0.232	-0.00978687829070338
0.234	-0.0203165748758787
0.236	-0.0359513831752223
0.238	-0.0408472893642224
0.24	-0.0375171151375487
0.242	-0.0274438221802817
0.244	-0.011070422297721
0.246	-0.0106674008055277
0.248	-0.0170935175499014
0.25	-0.0334999999999998
0.252	-0.0434487431019045
0.254	-0.0464432789694701
0.256	-0.0416909877939782
0.258	-0.0276668575947167
0.26	-0.00523288486245166
0.262	-0.000792030860779724
0.264	0.0077127932669216
0.266	0.0144272546508767
0.268	0.00732913894250969
0.27	0.00752113032590313
0.272	0.00421607930573021
0.274	0.0127389179709362
0.276	0.0185392652366737
0.278	0.0208183709659668
0.28	0.00756339097770914
0.282	-0.0121021843068233
0.284	-0.0414563857690653
0.286	-0.0539963686865074
0.288	-0.0562849911033293
0.29	-0.0509942949541509
0.292	-0.0399943186905487
0.294	-0.0287950929245963
0.296	-0.0268475749906897
0.298	-0.0369760684263528
0.3	-0.0539999999999996
0.302	-0.0687739315736467
0.304	-0.0811524250093101
0.306	-0.0747049070754041
0.308	-0.054505681309452
0.31	-0.0435057050458496
0.312	-0.0404650088966707
0.314	-0.0495036313134922
0.316	-0.0732936142309339
0.318	-0.0981478156931759
0.32	-0.113313390977709
0.322	-0.126568370965967
0.324	-0.122039265236674
0.326	-0.111738917970936
0.328	-0.0987160793057303
0.33	-0.086271130325903
0.332	-0.0905791389425095
0.334	-0.0999272546508765
0.336	-0.117962793266921
0.338	-0.11620796913922
0.34	-0.0960171151375487
0.342	-0.0780831424052836
0.344	-0.0528090122060223
0.346	-0.0323067210305299
0.348	-0.028551256898095
0.35	-0.0362499999999995
0.352	-0.0414064824500983
0.354	-0.0478325991944723
0.356	-0.0451795777022795
0.358	-0.0400561778197188
0.36	-0.0277328848624521
0.362	-0.0266527106357778
0.364	-0.0292986168247775
0.366	-0.0404334251241206
0.368	-0.0532131217092962
0.37	-0.0639788696740969
0.372	-0.0540761813460762
0.374	-0.039871761804062
0.376	-0.0252221448550253
0.378	-0.014042308809031
0.38	-0.00818660902229063
0.382	-0.0109915045318257
0.384	-0.020194975677367
0.386	-0.0238856889115096
0.388	-0.0272427304515232
0.39	-0.0177442949541505
0.392	-0.0109520580387425
0.394	-0.00768441314959836
0.396	-0.019086164898991
0.398	-0.0358653886513549
0.4	-0.0584999999999999
0.402	-0.0856346113486451
0.404	-0.100163835101009
0.406	-0.095815586850402
0.408	-0.090297941961258
0.41	-0.0812557050458497
0.412	-0.0740072695484769
0.414	-0.08186431108849
0.416	-0.0968050243226327
0.418	-0.110508495468173
0.42	-0.108813390977709
0.422	-0.105207691190969
0.424	-0.0872778551449754
0.426	-0.0636282381959388
0.428	-0.0471738186539242
0.43	-0.0462711303259029
0.432	-0.0480368782907031
0.434	-0.0675665748758786
0.436	-0.0832013831752221
0.438	-0.0903472893642225
0.44	-0.0892671151375486
0.442	-0.0836938221802822
0.444	-0.0650704222977211
0.446	-0.0556674008055276
0.448	-0.0530935175499011
0.45	-0.0649999999999998
0.452	-0.0704487431019047
0.454	-0.0711932789694701
0.456	-0.0619409877939782
0.458	-0.0389168575947164
0.46	-0.0164828848624518
0.462	0.00145796913922046
0.464	0.0167127932669213
0.466	0.018927254650877
0.468	0.0118291389425097
0.47	0.00752113032590324
0.472	0.00871607930573012
0.474	0.0149889179709357
0.476	0.0185392652366735
0.478	0.0253183709659669
0.48	0.0120633909777095
0.482	-0.0166021843068234
0.484	-0.0324563857690656
0.486	-0.0494963686865073
0.488	-0.0450349911033294
0.49	-0.0442442949541507
0.492	-0.026494318690549
0.494	-0.0197950929245963
0.496	-0.0178475749906899
0.498	-0.0279760684263526
0.5	-0.0449999999999995
0.502	-0.0642739315736467
0.504	-0.06540242500931
0.506	-0.0544549070754042
0.508	-0.0410056813094518
0.51	-0.03225570504585
0.512	-0.0269650088966708
0.514	-0.0405036313134922
0.516	-0.0665436142309335
0.518	-0.100397815693176
0.52	-0.115563390977709
0.522	-0.124318370965967
0.524	-0.115289265236674
0.526	-0.102738917970936
0.528	-0.0897160793057305
0.53	-0.086271130325903
0.532	-0.0883291389425094
0.534	-0.104427254650876
0.536	-0.122462793266921
0.538	-0.11395796913922
0.54	-0.0982671151375487
0.542	-0.0735831424052837
0.544	-0.0460590122060216
0.546	-0.0300567210305295
0.548	-0.026301256898095
0.55	-0.0272499999999999
0.552	-0.0346564824500982
0.554	-0.0478325991944723
0.556	-0.0564295777022793
0.558	-0.0490561778197191
0.56	-0.036732884862452
0.562	-0.0356527106357777
0.564	-0.0360486168247769
0.566	-0.0314334251241205
0.568	-0.0442131217092957
0.57	-0.0527288696740967
0.572	-0.0405761813460763
0.574	-0.0263717618040627
0.576	-0.00947214485502587
0.578	0.00845769119096867
0.58	0.0165633909777095
0.582	0.0115084954681746
0.584	0.00230502432263346
0.586	0.00536431108849073
0.588	-0.00249273045152322
0.59	0.00475570504584914
0.592	0.011547941961257
0.594	0.0125655868504016
0.596	0.00566383510100913
0.598	-0.0111153886513544
0.6	-0.0427499999999993
0.602	-0.0586346113486442
0.604	-0.0664138351010088
0.606	-0.0688155868504021
0.608	-0.0610479419612581
0.61	-0.04750570504585
0.612	-0.0470072695484768
0.614	-0.05036431108849
0.616	-0.0653050243226321
0.618	-0.0790084954681733
0.62	-0.0840633909777089
0.622	-0.0782076911909694
0.624	-0.0625278551449756
0.626	-0.0388782381959388
0.628	-0.0179238186539242
0.63	-0.00802113032590286
0.632	-0.018786878290703
0.634	-0.0383165748758786
0.636	-0.0562013831752222
0.638	-0.0655972893642226
0.64	-0.0622671151375485
0.642	-0.0476938221802821
0.644	-0.0268204222977211
0.646	-0.0174174008055279
0.648	-0.023843517549901
0.65	-0.0289999999999996
0.652	-0.0411987431019045
0.654	-0.04869327896947
0.656	-0.0259409877939782
0.658	-0.00741685759471633
0.66	0.0127671151375479
0.662	0.0352079691392202
0.664	0.0482127932669215
0.666	0.0549272546508772
0.668	0.0500791389425099
0.67	0.0502711303259031
0.672	0.05371607930573
0.674	0.0599889179709359
0.676	0.0657892652366737
0.678	0.0658183709659667
0.68	0.0435633909777094
0.682	0.010397815693176
0.684	-0.0324563857690658
0.686	-0.0742463686865075
0.688	-0.101284991103329
0.69	-0.122994294954152
0.692	-0.147994318690549
0.694	-0.177295092924597
0.696	-0.22034757499069
0.698	-0.277726068426352
0.7	-0.323999999999999
0.702	-0.343273931573646
0.704	-0.32640242500931
0.706	-0.297454907075404
0.708	-0.259255681309453
0.71	-0.21000570504585
0.712	-0.173215008896671
0.714	-0.148503631313491
0.716	-0.120543614230933
0.718	-0.0846478156931751
0.72	-0.0615633909777087
0.722	-0.0365683709659671
0.724	-0.0140392652366747
0.726	-0.00373891797093751
0.728	0.000283920694269489
0.73	-0.000771130325902848
0.732	-0.0185791389425086
0.734	-0.0459272546508762
0.736	-0.0639627932669209
0.738	-0.0689579691392206
0.74	-0.0532671151375489
0.742	-0.0263331424052845
0.744	0.00569098779397726
0.746	0.0284432789694701
0.748	0.0366987431019051
0.75	0.031250000000001
0.752	0.0148435175499019
0.754	0.0061674008055278
0.756	0.00882042229772077
0.758	0.011693822180281
0.76	0.0240171151375476
0.762	0.0318472893642222
0.764	0.0359513831752224
0.766	0.0203165748758793
0.768	0.0142868782907034
0.77	0.00802113032590321
0.772	0.00667381865392377
0.774	0.0208782381959384
0.776	0.0355278551449747
0.778	0.0467076911909688
0.78	0.0570633909777093
0.782	0.0497584954681745
0.784	0.0383050243226339
0.786	0.0323643110884902
0.788	0.0267572695484768
0.79	0.0362557050458489
0.792	0.0407979419612578
0.794	0.0395655868504016
0.796	0.0326638351010091
0.798	0.0136346113486447
0.8	-0.0179999999999999
0.802	-0.0361346113486448
0.804	-0.0461638351010094
0.806	-0.0463155868504023
0.808	-0.0385479419612584
0.81	-0.0295057050458494
0.812	-0.0290072695484769
0.814	-0.0413643110884898
0.816	-0.0518050243226322
0.818	-0.0655084954681728
0.82	-0.0683133909777093
0.822	-0.0557076911909693
0.824	-0.0445278551449763
0.826	-0.0186282381959388
0.828	-0.00667381865392455
0.83	-0.00127113032590276
0.832	-0.0142868782907031
0.834	-0.0315665748758779
0.836	-0.0517013831752219
0.838	-0.0588472893642222
0.84	-0.0577671151375492
0.842	-0.0454438221802825
0.844	-0.0313204222977213
0.846	-0.0241674008055277
0.848	-0.0215935175499009
0.85	-0.0334999999999998
0.852	-0.0411987431019045
0.854	-0.0441932789694701
0.856	-0.0326909877939786
0.858	-0.0141668575947171
0.86	0.00826711513754725
0.862	0.0239579691392203
0.864	0.0302127932669215
0.866	0.0234272546508777
0.868	0.0140791389425097
0.87	0.00977113032590322
0.872	0.00421607930572977
0.874	0.00598891797093611
0.876	0.0117892652366732
0.878	0.0163183709659666
0.88	0.00306339097770914
0.882	-0.0121021843068232
0.884	-0.0347063857690651
0.886	-0.0517463686865074
0.888	-0.0562849911033296
0.89	-0.0532442949541514
0.892	-0.0489943186905487
0.894	-0.0445450929245963
0.896	-0.0493475749906898
0.898	-0.0572260684263526
0.9	-0.0719999999999994
0.902	-0.0800239315736459
0.904	-0.09015242500931
0.906	-0.0882049070754042
0.908	-0.0725056813094525
0.91	-0.0637557050458496
0.912	-0.0674650088966709
0.914	-0.0877536313134918
0.916	-0.109293614230934
0.918	-0.134147815693176
0.92	-0.149313390977709
0.922	-0.151318370965967
0.924	-0.142289265236675
0.926	-0.129738917970937
0.928	-0.12121607930573
0.93	-0.120021130325903
0.932	-0.126579138942509
0.934	-0.144927254650876
0.936	-0.151712793266921
0.938	-0.145457969139221
0.94	-0.123017115137549
0.942	-0.0870831424052853
0.944	-0.0550590122060228
0.946	-0.03455672103053
0.948	-0.0308012568980946
0.95	-0.0362499999999995
0.952	-0.0481564824500979
0.954	-0.0455825991944725
0.956	-0.0474295777022798
0.958	-0.0355561778197198
0.96	-0.0164828848624527
0.962	-0.0019027106357775
0.964	-4.86168247771021E-05
0.966	-0.00893342512411982
0.968	-0.0172131217092961
0.97	-0.0144788696740967
0.972	-0.00457618134607652
0.974	0.00512823819593769
0.976	0.0242778551449742
0.978	0.0422076911909684
0.98	0.0525633909777097
0.982	0.0542584954681749
0.984	0.0495550243226341
0.986	0.0413643110884907
0.988	0.0425072695484768
0.99	0.0452557050458486
0.992	0.0452979419612573
0.994	0.0463155868504012
0.996	0.0461638351010092
0.998	0.0271346113486451
1	0.00450000000000094
1.002	-0.0113846113486436
1.004	-0.023663835101009
1.006	-0.0215655868504021
1.008	-0.0115479419612588
1.01	-0.00700570504584985
1.012	-0.00875726954847694
1.014	-0.00986431108848958
1.016	-0.0293050243226323
1.018	-0.0362584954681733
1.02	-0.0435633909777091
1.022	-0.028707691190969
1.024	-0.0107778551449758
1.026	0.0106217618040607
1.028	0.0248261813460758
1.03	0.0212288696740971
1.032	0.0127131217092976
1.034	-0.00681657487587879
1.036	-0.0269513831752221
1.038	-0.0273472893642228
1.04	-0.0217671151375489
1.042	-0.000443822180281925
1.044	0.0136795777022782
1.046	0.0185825991944724
1.048	0.0166564824500987
1.05	0.00475000000000106
1.052	-0.00519874310190409
1.054	-0.0081932789694701
1.056	0.0123090122060218
1.058	0.0240831424052835
1.06	0.060017115137548
1.062	0.0757079691392202
1.064	0.0819627932669215
1.066	0.0819272546508773
1.068	0.0725791389425104
1.07	0.0592711303259032
1.072	0.05821607930573
1.074	0.0667389179709351
1.076	0.0770392652366736
1.078	0.0815683709659667
1.08	0.0795633909777092
1.082	0.0643978156931761
1.084	0.0417936142309343
1.086	0.0247536313134927
1.088	0.0134650088966703
1.09	0.00525570504584906
1.092	0.0162556813094507
1.094	0.0252049070754041
1.096	0.02715242500931
1.098	0.019273931573648
1.1	0.0112499999999999
1.102	0.00322606842635382
1.104	0.00209757499068989
1.106	0.00854509292459596
1.108	0.021994318690548
1.11	0.0284942949541497
1.112	0.0292849911033292
1.114	0.0112463686865073
1.116	-0.0102936142309336
1.118	-0.0351478156931764
1.12	-0.0503133909777095
1.122	-0.0545683709659674
1.124	-0.0455392652366743
1.126	-0.0329889179709374
1.128	-0.0222160793057309
1.13	-0.0255211303259026
1.132	-0.0320791389425086
1.134	-0.0436772546508754
1.136	-0.0527127932669207
1.138	-0.0464579691392207
1.14	-0.0240171151375505
1.142	-0.00158314240528584
1.144	0.0281909877939766
1.146	0.0441932789694698
1.148	0.0479487431019056
1.15	0.0402500000000011
1.152	0.0238435175499022
1.154	0.0174174008055278
1.156	0.01332042229772
1.158	0.0274438221802798
1.16	0.0487671151375466
1.162	0.0543472893642221
1.164	0.0517013831752236
1.166	0.0450665748758806
1.168	0.0345368782907045
1.17	0.0170211303259034
1.172	0.0201738186539231
1.174	0.0298782381959372
1.176	0.0445278551449733
1.178	0.0624576911909682
1.18	0.0750633909777095
1.182	0.0722584954681756
1.184	0.049555024322635
1.186	0.0526143110884907
1.188	0.0515072695484769
1.19	0.0497557050458481
1.192	0.0542979419612566
1.194	0.0620655868504013
1.196	0.0484138351010092
1.198	0.0338846113486463
1.2	0.0180000000000015
1.202	-0.00238461134864301
1.204	-0.0169138351010086
1.206	-0.0193155868504023
1.208	-0.0137979419612593
1.21	-0.00700570504585034
1.212	-0.00875726954847697
1.214	-0.0121143110884892
1.216	-0.0248050243226319
1.218	-0.0430084954681726
1.22	-0.0413133909777086
1.222	-0.0309576911909697
1.224	-0.0130278551449762
1.226	0.0151217618040599
1.228	0.0293261813460755
1.23	0.0234788696740973
1.232	0.0127131217092981
1.234	-0.00681657487587792
1.236	-0.0202013831752219
1.238	-0.0250972893642229
1.24	-0.0150171151375495
1.242	0.00180617781971733
1.244	0.0114295777022782
1.246	0.0163325991944724
1.248	0.00765648245009927
1.25	-0.00424999999999947
1.252	-0.0164487431019044
1.254	-0.02394327896947
1.256	-0.00794098779397877
1.258	0.0218331424052829
1.26	0.0532671151375476
1.262	0.0667079691392199
1.264	0.075212793266922
1.266	0.0729272546508776
1.268	0.06357913894251
1.27	0.0502711303259032
1.272	0.0469660793057296
1.274	0.0532389179709358
1.276	0.0522892652366729
1.278	0.0658183709659663
1.28	0.0593133909777095
1.282	0.0463978156931766
1.284	0.0260436142309353
1.286	0.00900363131349232
1.288	-3.49911033292495E-05
1.29	-0.00374429495415143
1.292	0.000505681309451581
1.294	0.00720490707540377
1.296	0.00915242500931012
1.298	0.00577393157364719
1.3	-0.00224999999999929
1.302	-0.0147739315736461
1.304	-0.01815242500931
1.306	-0.0139549070754042
1.308	-0.00275568130945256
1.31	0.00824429495415056
1.312	0.00903499110332907
1.314	-0.00675363131349204
1.316	-0.0305436142309342
1.318	-0.0486478156931759
1.32	-0.0525633909777089
1.322	-0.0523183709659673
1.324	-0.0432892652366744
1.326	-0.0239889179709373
1.328	-0.0177160793057303
1.33	-0.0187711303259029
1.332	-0.0275791389425086
1.334	-0.0346772546508762
1.336	-0.0482127932669207
1.338	-0.0374579691392205
1.34	-0.00826711513754802
1.342	0.0164168575947159
1.344	0.043940987793978
1.346	0.0621932789694706
1.348	0.0569487431019052
1.35	0.0447500000000011
1.352	0.0328435175499013
1.354	0.0286674008055278
1.356	0.0268204222977202
1.358	0.0476938221802813
1.36	0.0600171151375469
1.362	0.0678472893642219
1.364	0.0652013831752225
1.366	0.05181657487588
1.368	0.0345368782907041
1.37	0.0282711303259031
1.372	0.0314238186539236
1.374	0.0456282381959381
1.376	0.0647778551449728
1.378	0.0804576911909681
1.38	0.0930633909777102
1.382	0.0902584954681757
1.384	0.0765550243226346
1.386	0.0751143110884918
1.388	0.0672572695484767
1.39	0.0677557050458485
1.392	0.0677979419612555
1.394	0.0665655868504009
1.396	0.0619138351010101
1.398	0.0496346113486474
1.4	0.0270000000000026
1.402	0.0133653886513565
1.404	-0.00341383510100852
1.406	-0.00131558685040242
1.408	0.00420205803874119
1.41	0.0042442949541487
1.412	0.00699273045152296
1.414	0.00138568891151031
1.416	-0.00680502432263008
1.418	-0.00925849546817246
1.42	-0.00981339097770866
1.422	0.000542308809029661
1.424	0.0274721448550228
1.426	0.0533717618040604
1.428	0.0585761813460745
1.43	0.0482288696740975
1.432	0.0127131217092977
1.434	-0.0315665748758763
1.436	-0.0697013831752212
1.438	-0.097097289364223
1.44	-0.11176711513755
1.442	-0.124193822180284
1.444	-0.134820422297722
1.446	-0.181667400805528
1.448	-0.2420935175499
1.45	-0.307999999999999
1.452	-0.338198743101903
1.454	-0.32319327896947
1.456	-0.289190987793979
1.458	-0.239166857594719
1.46	-0.182982884862453
1.462	-0.12229203086078
1.464	-0.0777872067330779
1.466	-0.0328227453491217
1.468	0.00732913894251041
1.47	0.0525211303259038
1.472	0.0919660793057295
1.474	0.118488917970935
1.476	0.124289265236672
1.478	0.119818370965966
1.48	0.10881339097771
1.482	0.0891478156931788
1.484	0.0552936142309358
1.486	0.0202536313134929
1.488	0.0134650088966704
1.49	0.00525570504584808
1.492	0.018505681309451
1.494	0.0342049070754024
1.496	0.0361524250093108
1.498	0.0305239315736478
1.5	0.0292500000000026
1.502	0.0189760684263545
1.504	0.0178475749906897
1.506	0.0197950929245963
1.508	0.0287443186905467
1.51	0.0352442949541501
1.512	0.0337849911033293
1.514	0.0157463686865086
1.516	0.0032063857690668
1.518	-0.0193978156931765
1.52	-0.0323133909777088
1.522	-0.0365683709659671
1.524	-0.0342892652366741
1.526	-0.0217389179709377
1.528	-0.0222160793057307
1.53	-0.0232711303259031
1.532	-0.0343291389425082
1.534	-0.0504272546508759
1.536	-0.0482127932669209
1.538	-0.0329579691392205
1.54	-0.012767115137549
1.542	0.0141668575947165
1.544	0.0349409877939772
1.546	0.0509432789694702
1.548	0.0411987431019047
1.55	0.0312500000000012
1.552	0.0193435175499019
1.554	0.0106674008055277
1.556	0.0155704222977197
1.558	0.031943822180281
1.56	0.0487671151375481
1.562	0.0520972893642222
1.564	0.0449513831752224
1.566	0.0293165748758786
1.568	0.00528687829070437
1.57	-0.00997886967409674
1.572	-0.00907618134607566
1.574	0.00512823819593722
1.576	0.0287778551449748
1.578	0.0489576911909693
1.58	0.0615633909777096
1.582	0.0565084954681749
1.584	0.0450550243226328
1.586	0.0256143110884913
1.588	0.0200072695484768
1.59	0.0205057050458494
1.592	0.0205479419612565
1.594	0.019315586850401
1.596	0.0124138351010089
1.598	0.00238461134864559
1.6	-0.0179999999999997
1.602	-0.0451346113486453
1.604	-0.0596638351010097
1.606	-0.0665655868504023
1.608	-0.0610479419612579
1.61	-0.0587557050458504
1.612	-0.0560072695484769
1.614	-0.0616143110884902
1.616	-0.0698050243226319
1.618	-0.0812584954681733
1.62	-0.0863133909777092
1.622	-0.0804576911909691
1.624	-0.0692778551449751
1.626	-0.0523782381959405
1.628	-0.0471738186539247
1.63	-0.0507711303259024
1.632	-0.0637868782907018
1.634	-0.081066574875878
1.636	-0.0989513831752213
1.638	-0.103847289364223
1.64	-0.102767115137549
1.642	-0.0836938221802847
1.644	-0.0695704222977222
1.646	-0.069167400805528
1.648	-0.0868435175498997
1.65	-0.0987499999999988
1.652	-0.113198743101904
1.654	-0.116193278969471
1.656	-0.10469098779398
1.658	-0.0749168575947181
1.66	-0.0547328848624537
1.662	-0.0367920308607801
1.664	-0.0282872067330786
1.666	-0.0395727453491214
1.668	-0.0556708610574894
1.67	-0.0667288696740967
1.672	-0.0632839206942709
1.674	-0.0592610820290651
1.676	-0.0422107347633265
1.678	-0.0376816290340344
1.68	-0.0351866090222903
1.682	-0.0503521843068227
1.684	-0.0684563857690632
1.686	-0.0877463686865061
1.688	-0.103534991103329
1.69	-0.100494294954152
1.692	-0.0962443186905497
1.694	-0.0895450929245968
1.696	-0.074097574990689
1.698	-0.0752260684263516
1.7	-0.0787499999999989
1.702	-0.0867739315736455
1.704	-0.0879024250093101
1.706	-0.0814549070754041
1.708	-0.0657556813094539
1.71	-0.0525057050458504
1.712	-0.0472150088966707
1.714	-0.0472536313134911
1.716	-0.0642936142309327
1.718	-0.0778978156931752
1.72	-0.0908133909777081
1.722	-0.0928183709659668
1.724	-0.0860392652366747
1.726	-0.0779889179709383
1.728	-0.0672160793057308
1.73	-0.0660211303259029
1.732	-0.0680791389425077
1.734	-0.0751772546508752
1.736	-0.0774627932669213
1.738	-0.0622079691392211
1.74	-0.0397671151375493
1.742	-0.010583142405284
1.744	0.0124409877939769
1.746	0.0216932789694699
1.748	0.020948743101905
1.75	0.0155000000000018
1.752	0.0013435175499023
1.754	0.00166740080552741
1.756	0.0110704222977196
1.758	0.0319438221802793
1.76	0.0442671151375475
1.762	0.058847289364222
1.764	0.051701383175223
1.766	0.0338165748758795
1.768	0.0142868782907049
1.77	0.00127113032590344
1.772	-7.6181346076181E-05
1.774	0.0186282381959364
1.776	0.0445278551449743
1.778	0.0624576911909692
1.78	0.0683133909777099
1.782	0.0632584954681751
1.784	0.0518050243226331
1.786	0.0413643110884917
1.788	0.0312572695484767
1.79	0.0295057050458494
1.792	0.034047941961256
1.794	0.0418155868504006
1.796	0.0394138351010089
1.798	0.033884611348646
1.8	0.00675000000000135
1.802	-0.0181346113486444
1.804	-0.0326638351010092
1.806	-0.0350655868504027
1.808	-0.0317979419612578
1.81	-0.0227557050458509
1.812	-0.026757269548477
1.814	-0.0368643110884897
1.816	-0.0383050243226312
1.818	-0.0475084954681731
1.82	-0.0480633909777095
1.822	-0.0377076911909691
1.824	-0.0220278551449756
1.826	-0.00962823819593853
1.828	-0.00217381865392487
1.83	-0.0035211303259027
1.832	-0.0142868782907034
1.834	-0.0293165748758771
1.836	-0.033701383175222
1.838	-0.0363472893642221
1.84	-0.0195171151375505
1.842	-0.0116938221802827
1.844	0.000179577702278787
1.846	0.00283259919447248
1.848	-0.0125935175499008
1.85	-0.0267499999999999
1.852	-0.0366987431019032
1.854	-0.0374432789694702
1.856	-0.0124409877939782
1.858	0.0150831424052825
1.86	0.0465171151375482
1.862	0.0689579691392203
1.864	0.0684627932669221
1.866	0.0594272546508781
1.868	0.0433291389425097
1.87	0.0367711303259036
1.872	0.0357160793057299
1.874	0.0419889179709357
1.876	0.0590392652366729
1.878	0.0658183709659664
1.88	0.0660633909777098
1.882	0.0508978156931777
1.884	0.0282936142309373
1.886	0.00450363131349419
1.888	-0.0112849911033291
1.89	-0.0104942949541524
1.892	-0.0039943186905503
1.894	0.00495490707540342
1.896	0.0181524250093102
1.898	0.019273931573649
1.9	0.00900000000000186
1.902	0.000976068426355088
1.904	-0.00690242500930994
1.906	-0.011704907075405
1.908	-0.000505681309453944
1.91	0.00824429495414909
1.912	0.00678499110332963
1.914	-0.00450363131349017
1.916	-0.0192936142309322
1.918	-0.0351478156931748
1.92	-0.050313390977708
1.922	-0.0545683709659672
1.924	-0.0522892652366745
1.926	-0.046488917970939
1.928	-0.0379660793057311
1.93	-0.0367711303259029
1.932	-0.0410791389425074
1.934	-0.0504272546508746
1.936	-0.0549627932669209
1.938	-0.0464579691392211
1.94	-0.0240171151375508
1.942	0.000666857594715433
1.944	0.021440987793976
1.946	0.03069327896947
1.948	0.0321987431019049
1.95	0.0222500000000024
1.952	0.0125935175499027
1.954	0.0106674008055274
1.956	0.0223204222977191
1.958	0.0341938221802796
1.96	0.0465171151375468
1.962	0.0565972893642213
1.964	0.0494513831752233
1.966	0.03156657487588
1.968	0.0120368782907057
1.97	0.00127113032590363
1.972	0.00667381865392359
1.974	0.0231282381959358
1.976	0.046777855144973
1.978	0.064707691190969
1.98	0.0728133909777104
1.982	0.0700084954681757
1.984	0.0518050243226338
1.986	0.0391143110884915
1.988	0.0335072695484767
1.99	0.0340057050458489
1.992	0.0407979419612554
1.994	0.0508155868504013
1.996	0.0529138351010088
1.998	0.0383846113486469
2	0.0202500000000019
2.002	-0.00463461134864183
2.004	-0.0214138351010083
2.006	-0.0305655868504034
2.008	-0.0227979419612585
2.01	-0.0205057050458509
2.012	-0.022257269548477
2.014	-0.0188643110884884
2.016	-0.0225550243226302
2.018	-0.0340084954681713
2.02	-0.0435633909777091
2.022	-0.0354576911909703
2.024	-0.0175278551449761
2.026	-0.00512823819594185
2.028	0.00682618134607489
2.03	0.00772886967409784
2.032	-0.0052868782907029
2.034	-0.0180665748758762
2.036	-0.0247013831752217
2.038	-0.0228472893642236
2.04	-0.0150171151375496
2.042	-0.0049438221802851
2.044	-0.00207042229772173
2.046	0.000582599194471335
2.048	-0.00584351754990003
2.05	-0.0199999999999976
2.052	-0.0254487431019033
2.054	-0.0216932789694706
2.056	-0.00794098779397855
2.058	0.0173331424052804
2.06	0.0352671151375473
2.062	0.0487079691392187
2.064	0.0482127932669225
2.066	0.0256772546508796
2.068	0.0140791389425101
2.07	0.000771130325903639
2.072	-0.00478392069427044
2.074	0.00373891797093353
2.076	0.0185392652366712
2.078	0.023068370965966
2.08	0.0143133909777092
2.082	0.00139781569317839
2.084	-0.0279563857690647
2.086	-0.0494963686865055
2.088	-0.0607849911033296
2.09	-0.0622442949541534
2.092	-0.0534943186905491
2.094	-0.0445450929245969
2.096	-0.0470975749906889
2.098	-0.0572260684263515
2.1	-0.0652499999999979
2.102	-0.0732739315736438
2.104	-0.0856524250093101
2.106	-0.0882049070754053
2.108	-0.0837556813094528
2.11	-0.075005705045851
2.112	-0.0674650088966717
2.114	-0.0742536313134899
2.116	-0.0912936142309338
2.118	-0.118397815693174
2.12	-0.133563390977709
2.122	-0.135568370965968
2.124	-0.135539265236676
2.126	-0.125238917970939
2.128	-0.11671607930573
2.13	-0.113271130325903
2.132	-0.117579138942509
2.134	-0.122427254650875
2.136	-0.12021279326692
2.138	-0.104957969139222
2.14	-0.0870171151375473
2.142	-0.0578331424052862
2.144	-0.0370590122060223
2.146	-0.0278067210305305
2.148	-0.0285512568980932
2.15	-0.038499999999997
2.152	-0.0526564824500986
2.154	-0.0500825991944732
2.156	-0.0451795777022794
2.158	-0.0310561778197212
2.16	-0.0142328848624538
2.162	-0.00190271063577854
2.164	-0.00679861682477735
2.166	-0.0201834251241198
2.168	-0.0397131217092961
2.17	-0.0527288696740962
2.172	-0.0518261813460765
2.174	-0.0308717618040647
2.176	-0.00722214485502456
2.178	0.0152076911909678
2.18	0.0233133909777098
2.182	0.0182584954681766
2.184	5.50243226350861E-05
2.186	-0.0193856889115081
2.188	-0.024992730451523
2.19	-0.022244294954152
2.192	-0.0154520580387435
2.194	0.00356558685040085
2.196	0.00566383510100881
2.198	-0.00661538865135332
2.2	-0.0270000000000004
2.202	-0.0631346113486431
2.204	-0.0866638351010094
2.206	-0.091315586850403
2.208	-0.0880479419612596
2.21	-0.0835057050458514
2.212	-0.0740072695484771
2.214	-0.0728643110884896
2.216	-0.078805024322632
2.218	-0.0857584954681715
2.22	-0.0885633909777079
2.222	-0.0872076911909705
2.224	-0.0692778551449745
2.226	-0.0523782381959395
2.228	-0.0426738186539239
2.23	-0.0350211303259025
2.232	-0.0480368782907024
2.234	-0.0473165748758761
2.236	-0.0562013831752224
2.238	-0.049847289364223
2.24	-0.04426711513755
2.242	-0.0409438221802831
2.244	-0.0425704222977217
2.246	-0.0579174008055282
2.248	-0.0890935175499011
2.25	-0.125749999999999
2.252	-0.153698743101904
2.254	-0.172443278969471
2.256	-0.185690987793982
2.258	-0.18966685759472
2.26	-0.214482884862456
2.262	-0.252792030860779
2.264	-0.309537206733078
2.266	-0.345572745349122
2.268	-0.341420861057488
2.27	-0.338978869674096
2.272	-0.308533920694271
2.274	-0.264011082029065
2.276	-0.208710734763329
2.278	-0.163681629034035
2.28	-0.120686609022289
2.282	-0.0796021843068214
2.284	-0.0527063857690616
2.286	-0.0247463686865068
2.288	-0.015784991103329
2.29	-0.0239942949541516
2.292	-0.0152443186905518
2.294	-0.00404509292459773
2.296	-0.00659757499068893
2.298	-0.0144760684263521
2.3	-0.0337499999999977
2.302	-0.0552739315736454
2.304	-0.0721524250093091
2.306	-0.0724549070754055
2.308	-0.0590056813094554
2.31	-0.0502557050458501
2.312	-0.0427150088966711
2.314	-0.0450036313134919
2.316	-0.0575436142309299
2.318	-0.0778978156931739
2.32	-0.0975633909777079
2.322	-0.110818370965967
2.324	-0.108539265236676
2.326	-0.0982389179709382
2.328	-0.0942160793057314
2.33	-0.0975211303259023
2.332	-0.101829138942507
2.334	-0.104427254650875
2.336	-0.099962793266921
2.338	-0.0869579691392207
2.34	-0.0712671151375521
2.342	-0.0533331424052851
2.344	-0.0393090122060255
2.346	-0.02555672103053
2.348	-0.0240512568980936
2.35	-0.0429999999999981
2.352	-0.0391564824500967
2.354	-0.0388325991944727
2.356	-0.0316795777022819
2.358	-0.0153061778197192
2.36	-0.00973288486245377
2.362	-0.0131527106357788
2.364	-0.0225486168247763
2.366	-0.0381834251241189
2.368	-0.0554631217092935
2.37	-0.0662288696740965
2.372	-0.0563261813460772
2.374	-0.0353717618040631
2.376	-0.013972144855028
2.378	0.00395769119096864
2.38	0.00756339097770992
2.382	-0.00649150453182493
2.384	-0.0224449756773648
2.386	-0.0373856889115086
2.388	-0.0429927304515234
2.39	-0.0424942949541502
2.392	-0.0199520580387459
2.394	-0.00543441314959867
2.396	-0.00783616489898976
2.398	-0.0268653886513552
2.4	-0.0494999999999971
2.402	-0.083384611348645
2.404	-0.102413835101008
2.406	-0.109315586850403
2.408	-0.110547941961259
2.41	-0.106005705045851
2.412	-0.0987572695484767
2.414	-0.0976143110884901
2.416	-0.10580502432263
2.418	-0.117258495468173
2.42	-0.117813390977709
2.422	-0.114207691190969
2.424	-0.109777855144978
2.426	-0.092878238195938
2.428	-0.0809238186539256
2.43	-0.0755211303259028
2.432	-0.0840368782907018
2.434	-0.0968165748758774
2.436	-0.114701383175221
2.438	-0.112847289364222
2.44	-0.109517115137552
2.442	-0.103943822180282
2.444	-0.105570422297722
2.446	-0.102917400805528
2.448	-0.1115935175499
2.45	-0.12125
2.452	-0.124448743101903
2.454	-0.12069327896947
2.456	-0.111440987793979
2.458	-0.0794168575947163
2.46	-0.0659828848624546
2.462	-0.0592920308607794
2.464	-0.0552872067330766
2.466	-0.0620727453491221
2.468	-0.0759208610574891
2.47	-0.0824788696740963
2.472	-0.0812839206942711
2.474	-0.0705110820290635
2.476	-0.0602107347633291
2.478	-0.0489316290340341
2.48	-0.0621866090222907
2.482	-0.0796021843068232
2.484	-0.108956385769064
2.486	-0.134996368686509
2.488	-0.14403499110333
2.49	-0.138744294954151
2.492	-0.12774431869055
2.494	-0.114295092924596
2.496	-0.107847574990689
2.498	-0.104476068426353
2.5	-0.116999999999999
2.502	-0.127273931573644
2.504	-0.13515242500931
2.506	-0.130954907075406
2.508	-0.124255681309454
2.51	-0.108755705045852
2.512	-0.0944650088966704
2.514	-0.0967536313134893
2.516	-0.102543614230933
2.518	-0.116147815693172
2.52	-0.133563390977709
2.522	-0.131068370965968
2.524	-0.128789265236674
2.526	-0.12073891797094
2.528	-0.107716079305731
2.53	-0.0975211303259023
2.532	-0.0995791389425077
2.534	-0.0976772546508732
2.536	-0.102212793266921
2.538	-0.0869579691392227
2.54	-0.0712671151375502
2.542	-0.0443331424052872
2.544	-0.0213090122060229
2.546	-0.00305672103053094
2.548	-0.00155125689809537
2.55	0.00425000000000419
2.552	-0.00315648245009775
2.554	-0.00283259919447267
2.556	0.00432042229771954
2.558	0.0251938221802773
2.56	0.0352671151375479
2.562	0.0363472893642212
2.564	0.0314513831752231
2.566	0.0180665748758813
2.568	-0.00596312170929473
2.57	-0.00772886967409581
2.572	-7.61813460760387E-05
2.574	0.0208782381959336
2.576	0.0445278551449736
2.578	0.0647076911909675
2.58	0.0660633909777105
2.582	0.0587584954681769
2.584	0.045055024322634
2.586	0.0323643110884927
2.588	0.0222572695484769
2.59	0.0362557050458479
2.592	0.0430479419612552
2.594	0.0575655868503999
2.596	0.0664138351010095
2.598	0.0428846113486496
2.6	0.0157500000000006
2.602	-0.0203846113486424
2.604	-0.0416638351010086
2.606	-0.0485655868504039
2.608	-0.0430479419612586
2.61	-0.0295057050458524
2.612	-0.0132572695484768
2.614	-0.0143643110884887
2.616	-0.0225550243226305
2.618	-0.0385084954681713
2.62	-0.0413133909777087
2.622	-0.0377076911909699
2.624	-0.0265278551449754
2.626	-0.00962823819594129
2.628	0.00232618134607527
2.63	0.0122288696740979
2.632	0.00821312170929662
2.634	0.00218342512412283
2.636	-0.0112013831752219
2.638	-0.0183472893642235
2.64	-0.0172671151375501
2.642	-0.0116938221802846
2.644	-0.00432042229772129
2.646	0.00283259919447226
2.648	-0.00584351754990105
2.65	-0.00874999999999749
2.652	-0.014198743101903
2.654	-0.0104432789694711
2.656	0.0100590122060225
2.658	0.0353331424052816
2.66	0.0532671151375484
2.662	0.0712079691392187
2.664	0.068462793266923
2.666	0.0616772546508797
2.668	0.0545791389425101
2.67	0.0525211303259033
2.672	0.0604660793057297
2.674	0.0712389179709337
2.676	0.0837892652366723
2.678	0.0883183709659657
2.68	0.0795633909777085
2.682	0.0486478156931775
2.684	0.028293614230935
2.686	0.00900363131349373
2.688	-0.00453499110333001
2.69	0.00750570504584743
2.692	0.0207556813094509
2.694	0.0319549070754031
2.696	0.0361524250093109
2.698	0.0305239315736491
2.7	0.0112500000000015
2.702	0.00322606842635579
2.704	-0.00465242500930924
2.706	-0.00270490707540431
2.708	0.0107443186905473
2.71	0.028494294954149
2.712	0.0382849911033291
2.714	0.0292463686865094
2.716	0.0122063857690652
2.718	-0.012647815693175
2.72	-0.0390633909777084
2.722	-0.0500683709659688
2.724	-0.043289265236676
2.726	-0.0352389179709388
2.728	-0.0289660793057302
2.73	-0.0187711303259026
2.732	-0.0253291389425065
2.734	-0.0256772546508729
2.736	-0.0279627932669197
2.738	-0.0239579691392208
2.74	-0.0105171151375472
2.742	0.011916857594715
2.744	0.0281909877939773
2.746	0.0396932789694704
2.748	0.041198743101906
2.75	0.0402500000000031
2.752	0.0373435175499041
2.754	0.035417400805527
2.756	0.0448204222977184
2.758	0.0544438221802771
2.76	0.0577671151375431
2.762	0.0633472893642218
2.764	0.0539513831752251
2.766	0.0360665748758799
2.768	0.0255368782907055
2.77	0.0192711303259042
2.772	0.0291738186539213
2.774	0.0433782381959359
2.776	0.0647778551449701
2.778	0.0849576911909682
2.78	0.0885633909777098
2.782	0.0790084954681784
2.784	0.0653050243226385
2.786	0.0503643110884916
2.788	0.0492572695484765
2.79	0.0565057050458488
2.792	0.0700479419612564
2.794	0.075565586850399
2.796	0.0776638351010103
2.798	0.0541346113486478
2.8	0.0247500000000051
2.802	-0.00688461134864425
2.804	-0.0236638351010081
2.806	-0.0328155868504038
2.808	-0.0250479419612629
2.81	-0.00925570504585151
2.812	0.00699273045152281
2.814	0.00363568891151011
2.816	0.00219497567736959
2.818	-0.0115084954681698
2.82	-0.027813390977708
2.822	-0.0264576911909701
2.824	-0.0152778551449789
2.826	0.00387176180406101
2.828	0.0225761813460746
2.83	0.0324788696740982
2.832	0.0284631217093012
2.834	0.011183425124123
2.836	-0.00220138317521991
2.838	-0.0115972893642229
2.84	-0.00826711513755121
2.842	0.00180617781971416
2.844	0.00917957770227569
2.846	0.0118325991944721
2.848	0.00765648245010079
2.85	0.00475000000000141
2.852	0.00605125689809661
2.854	0.00755672103053023
2.856	0.0235590122060167
2.858	0.0398331424052815
2.86	0.0622671151375446
2.862	0.0779579691392206
2.864	0.0864627932669221
2.866	0.0751772546508807
2.868	0.074829138942514
2.87	0.0727711303259037
2.872	0.0784660793057287
2.874	0.0892389179709352
2.876	0.0995392652366716
2.878	0.0973183709659654
2.88	0.0818133909777113
2.882	0.0531478156931777
2.884	0.028293614230938
2.886	0.0180036313134924
2.888	0.0179650088966706
2.89	0.0255057050458502
2.892	0.041005681309447
2.894	0.0544549070754023
2.896	0.0631524250093108
2.898	0.0507739315736486
2.9	0.0315000000000017
2.902	0.0144760684263525
2.904	0.00209757499069084
2.906	0.00404509292459552
2.908	0.0242443186905446
2.91	0.0397442949541498
2.912	0.0450349911033294
2.914	0.0404963686865076
2.916	0.0212063857690714
2.918	-0.0081478156931748
2.92	-0.0300633909777082
2.922	-0.0365683709659674
2.924	-0.0342892652366758
2.926	-0.0262389179709359
2.928	-0.0109660793057324
2.93	-0.00527113032590228
2.932	-0.0118291389425065
2.934	-0.0189272546508757
2.936	-0.0279627932669206
2.938	-0.0262079691392195
2.94	-0.0105171151375529
2.942	0.0141668575947151
2.944	0.0326909877939755
2.946	0.0441932789694707
2.948	0.0569487431019056
2.95	0.0559999999999997
2.952	0.0508435175499051
2.954	0.0376674008055275
2.956	0.0470704222977174
2.958	0.0544438221802813
2.96	0.0577671151375466
2.962	0.0610972893642218
2.964	0.058451383175225
2.966	0.0428165748758807
2.968	0.0322868782907063
2.97	0.0305211303259032
2.972	0.0359238186539231
2.974	0.0478782381959397
2.976	0.0647778551449705
2.978	0.0782076911909693
2.98	0.08181339097771
2.982	0.0767584954681748
2.984	0.0585550243226354
2.986	0.0503643110884898
2.988	0.053757269548476
2.99	0.0565057050458478
2.992	0.0632979419612549
2.994	0.0755655868504009
2.996	0.0664138351010094
2.998	0.0428846113486432
3	0.0157500000000062
3.002	-0.0181346113486389
3.004	-0.0326638351010086
3.006	-0.0328155868504037
3.008	-0.0250479419612596
3.01	-0.00925570504585155
3.012	-0.00425726954847647
3.014	-0.00761431108848662
3.016	-0.01805502432263
3.018	-0.0340084954681699
3.02	-0.0480633909777081
3.022	-0.0534576911909712
3.024	-0.0400278551449752
3.026	-0.0231282381959444
3.028	-0.00217381865392541
3.03	0.000978869674098257
3.032	-0.000786878290702022
3.034	-0.0135665748758761
3.036	-0.0269513831752227
3.038	-0.0318472893642233
3.04	-0.0330171151375514
3.042	-0.0274438221802871
3.044	-0.0313204222977214
3.046	-0.0174174008055278
3.048	-0.0125935175499019
3.05	-0.0199999999999951
3.052	-0.0164487431019024
3.054	-0.0059432789694709
3.056	0.00555901220602076
3.058	0.0218331424052794
3.06	0.0465171151375483
3.062	0.0667079691392182
3.064	0.0729627932669231
3.066	0.0774272546508804
3.068	0.0725791389425109
3.07	0.0727711303259037
3.072	0.0784660793057301
3.074	0.089238917970931
3.076	0.0995392652366709
3.078	0.0950683709659652
3.08	0.0885633909777098
3.082	0.0643978156931795
3.084	0.0372936142309339
3.086	0.0225036313134955
3.088	0.0202150088966701
3.09	0.0277557050458464
3.092	0.0387556813094508
3.094	0.0544549070754018
3.096	0.0586524250093102
3.098	0.048523931573652
3.1	0.0270000000000042
3.102	0.0144760684263559
3.104	0.00884757499069015
3.106	0.0220450929245951
3.108	0.0332443186905484
3.11	0.0464942949541461
3.112	0.0585349911033288
3.114	0.0517463686865107
3.116	0.0279563857690672
3.118	-0.00364781569317303
3.12	-0.0233133909777097
3.122	-0.0343183709659676
3.124	-0.0342892652366765
3.126	-0.0172389179709401
3.128	-0.00196607930573103
3.13	0.00597886967409773
3.132	0.00392086105749029
3.134	-0.00767725465087595
3.136	-0.0189627932669196
3.138	-0.0149579691392219
3.14	0.000732884862450871
3.142	0.0231668575947129
3.144	0.0349409877939795
3.146	0.0621932789694696
3.148	0.0659487431019066
3.15	0.0605000000000032
3.152	0.0598435175499024
3.154	0.0601674008055276
3.156	0.0583204222977204
3.158	0.0656938221802801
3.16	0.0802671151375464
3.162	0.0858472893642213
3.164	0.0832013831752222
3.166	0.0788165748758816
3.168	0.066036878290703
3.17	0.0552711303259032
3.172	0.0584238186539231
3.174	0.0568782381959342
3.176	0.0445278551449742
3.178	0.0309576911909681
3.18	0.0143133909777099
3.182	-0.0177415045318253
3.184	-0.0651949756773642
3.186	-0.0936356889115069
3.188	-0.135242730451523
3.19	-0.175244294954152
3.192	-0.224702058038742
3.194	-0.255184413149599
3.196	-0.262086164898991
3.198	-0.278865388651352
3.2	-0.279
3.202	-0.283634611348643
3.204	-0.25091383510101
3.206	-0.217315586850402
3.208	-0.162297941961261
3.21	-0.0925057050458525
3.212	-0.0222572695484769
3.214	0.0283856889115117
3.216	0.0404449756773669
3.218	0.0312415045318265
3.22	0.0104366090222921
3.222	0.00954230880902979
3.224	0.0139721448550252
3.226	0.0218717618040593
3.228	0.0293261813460764
3.23	0.0324788696740972
3.232	0.0262131217092987
3.234	0.00443342512412472
3.236	-0.0134513831752228
3.238	-0.0183472893642233
3.24	-0.0195171151375479
3.242	-0.00944382218028283
3.244	0.0046795777022777
3.246	0.0163325991944727
3.248	0.0166564824500991
3.25	0.00700000000000149
3.252	-0.0006987431019028
3.254	0.00305672103052946
3.256	0.010059012206019
3.258	0.0285831424052795
3.26	0.0487671151375426
3.262	0.0712079691392205
3.264	0.0729627932669213
3.266	0.0751772546508777
3.268	0.0748291389425112
3.27	0.0660211303259041
3.272	0.0694660793057278
3.274	0.0667389179709346
3.276	0.0770392652366712
3.278	0.0725683709659655
3.28	0.0615633909777112
3.282	0.0463978156931786
3.284	0.0237936142309391
3.286	0.0112536313134937
3.288	0.00896500889667034
3.29	0.00975570504584917
3.292	0.0275056813094504
3.294	0.034204907075401
3.296	0.0316524250093102
3.298	0.0170239315736498
3.3	-0.00224999999999677
3.302	-0.0170239315736463
3.304	-0.0181524250093091
3.306	-0.00270490707540577
3.308	0.0107443186905445
3.31	0.0239942949541489
3.312	0.0405349911033294
3.314	0.0202463686865075
3.316	-0.0102936142309311
3.318	-0.0328978156931739
3.32	-0.054813390977708
3.322	-0.0703183709659679
3.324	-0.0635392652366771
3.326	-0.0509889179709365
3.328	-0.0379660793057311
3.33	-0.0345211303259019
3.332	-0.0388291389425057
3.334	-0.0549272546508743
3.336	-0.0572127932669214
3.338	-0.0532079691392195
3.34	-0.03976711513755
3.342	-0.0218331424052871
3.344	-0.00105901220602621
3.346	0.0194432789694702
3.348	0.0209487431019062
3.35	0.0199999999999998
3.352	0.0058435175499029
3.354	0.00166740080552742
3.356	-0.00242957770228357
3.358	0.00269382218027883
3.36	0.0105171151375453
3.362	0.0115972893642224
3.364	0.00445138317522301
3.366	-0.00668342512411754
3.368	-0.0194631217092924
3.37	-0.0234788696740965
3.372	-0.0270761813460779
3.374	-0.0151217618040614
3.376	-0.0094721448550262
3.378	0.00170769119096788
3.38	0.00531339097771063
3.382	-0.0064915045318249
3.384	-0.0179449756773641
3.386	-0.0238856889115086
3.388	-0.0249927304515237
3.39	-0.0199942949541531
3.392	-0.0154520580387464
3.394	-0.0166844131495989
3.396	-0.0280861648989906
3.398	-0.051615388651355
3.4	-0.0742499999999972
3.402	-0.103634611348643
3.404	-0.115913835101008
3.406	-0.122815586850403
3.408	-0.12404794196126
3.41	-0.11275570504585
3.412	-0.105507269548477
3.414	-0.117864311088488
3.416	-0.130555024322629
3.418	-0.146508495468173
3.42	-0.144813390977709
3.422	-0.147957691190967
3.424	-0.123277855144977
3.426	-0.10412823819594
3.428	-0.0876738186539259
3.43	-0.0755211303259028
3.432	-0.081786878290701
3.434	-0.0990665748758789
3.436	-0.119201383175222
3.438	-0.117347289364222
3.44	-0.114017115137552
3.442	-0.0994438221802842
3.444	-0.0898204222977226
3.446	-0.0646674008055278
3.448	-0.0665935175499011
3.45	-0.0739999999999973
3.452	-0.0749487431019014
3.454	-0.0734432789694699
3.456	-0.0619409877939808
3.458	-0.036666857594715
3.46	-0.00973288486245363
3.462	0.0127079691392209
3.464	0.0257127932669239
3.466	0.025677254650878
3.468	0.025329138942512
3.47	0.027771130325903
3.472	0.0379660793057296
3.474	0.046488917970934
3.476	0.0612892652366705
3.478	0.0613183709659651
3.48	0.0548133909777092
3.482	0.0396478156931748
3.484	0.0237936142309349
3.486	0.00900363131349363
3.488	0.00221500889666979
3.49	0.0120057050458482
3.492	0.0252556813094493
3.494	0.0364549070754054
3.496	0.0339024250093095
3.498	0.0282739315736498
3.5	0.0090000000000057
3.502	-0.00352393157364402
3.504	-0.00240242500930954
3.506	0.00404509292459444
3.508	0.0219943186905479
3.51	0.0329942949541488
3.512	0.0315349911033289
3.514	0.0202463686865119
3.516	0.00320638576906793
3.518	-0.0171478156931711
3.52	-0.0323133909777095
3.522	-0.0388183709659682
3.524	-0.0252892652366778
3.526	-0.0149889179709414
3.528	-0.0087160793057313
3.53	-0.00527113032590225
3.532	-0.0118291389425089
3.534	-0.0279272546508753
3.536	-0.0347127932669188
3.538	-0.028457969139223
3.54	-0.0127671151375499
3.542	0.00966685759471189
3.544	0.0349409877939769
3.546	0.0531932789694698
3.548	0.0569487431019072
3.55	0.0560000000000044
3.552	0.0418435175499032
3.554	0.0331674008055282
3.556	0.0358204222977193
3.558	0.0386938221802776
3.56	0.0442671151375451
3.562	0.0520972893642209
3.564	0.0562013831752236
3.566	0.0540665748758821
3.568	0.0390368782907044
3.57	0.0327711303259036
3.572	0.0269238186539227
3.574	0.0366282381959325
3.576	0.0445278551449733
3.578	0.0669576911909678
3.58	0.0683133909777097
3.582	0.063258495468176
3.584	0.0585550243226363
3.586	0.0548643110884933
3.588	0.0560072695484766
3.59	0.0632557050458468
3.592	0.070047941961257
3.594	0.0665655868504011
3.596	0.0596638351010088
3.598	0.0428846113486492
3.6	0.0112500000000027
3.602	-0.0203846113486406
3.604	-0.0259138351010087
3.606	-0.026065586850402
3.608	-0.0182979419612613
3.61	-0.00250570504585348
3.612	0.00249273045152291
3.614	-0.00761431108848751
3.616	-0.024805024322632
3.618	-0.0362584954681722
3.62	-0.0480633909777084
3.622	-0.0444576911909716
3.624	-0.0220278551449758
3.626	-0.000628238195942377
3.628	0.0180761813460759
3.63	0.0234788696740972
3.632	0.0149631217092997
3.634	-0.00906657487587422
3.636	-0.0224513831752214
3.638	-0.0273472893642227
3.64	-0.024017115137548
3.642	-0.0184438221802833
3.644	0.00692957770227562
3.646	0.00958259919447324
3.648	0.00765648245009986
3.65	0.0025000000000027
3.652	-0.0119487431019048
3.654	-0.0104432789694704
3.656	-0.0056909877939806
3.658	0.0218331424052773
3.66	0.0420171151375487
3.662	0.0599579691392183
3.664	0.0707127932669222
3.666	0.0729272546508784
3.668	0.0635791389425128
3.67	0.0615211303259044
3.672	0.0649660793057294
3.674	0.0667389179709333
3.676	0.072539265236674
3.678	0.0748183709659669
3.68	0.0683133909777091
3.682	0.0531478156931795
3.684	0.0327936142309351
3.686	0.0247536313134943
3.688	0.0157150088966709
3.69	0.0232557050458482
3.692	0.0297556813094482
3.694	0.0297049070754014
3.696	0.031652425009311
3.698	0.0170239315736488
3.7	0.0112500000000014
3.702	-0.00127393157364402
3.704	-0.000152425009309939
3.706	0.0107950929245936
3.708	0.0287443186905469
3.71	0.0419942949541479
3.712	0.0292849911033292
3.714	0.0224963686865094
3.716	0.00095638576906814
3.718	-0.019397815693173
3.72	-0.0435633909777096
3.722	-0.0478183709659687
3.724	-0.0365392652366742
3.726	-0.0239889179709378
3.728	-0.0109660793057315
3.73	-0.00752113032590188
3.732	-0.0163291389425074
3.734	-0.0279272546508743
3.736	-0.0369627932669204
3.738	-0.0352079691392204
3.74	-0.0217671151375499
3.742	0.00966685759471186
3.744	0.0371909877939771
3.746	0.0486932789694704
3.748	0.0546987431019056
3.75	0.051500000000001
3.752	0.0305935175499026
3.754	0.0241674008055273
3.756	0.0245704222977172
3.758	0.0341938221802773
3.76	0.053267115137544
3.762	0.0588472893642219
3.764	0.0607013831752235
3.766	0.0473165748758829
3.768	0.0367868782907086
3.77	0.0282711303259039
3.772	0.0314238186539216
3.774	0.0433782381959375
3.776	0.046777855144971
3.778	0.0647076911909676
3.78	0.0638133909777116
3.782	0.0700084954681764
3.784	0.0675550243226374
3.786	0.0593643110884909
3.788	0.058257269548477
3.79	0.0655057050458459
3.792	0.0677979419612531
3.794	0.0688155868504002
3.796	0.0529138351010093
3.798	0.0361346113486457
3.8	0.0112500000000038
3.802	-0.0113846113486408
3.804	-0.0214138351010079
3.806	-0.021565586850403
3.808	-0.0137979419612608
3.81	0.00424429495415016
3.812	0.00699273045152256
3.814	0.00138568891151255
3.816	-0.0135550243226265
3.818	-0.0362584954681717
3.82	-0.041313390977708
3.822	-0.0264576911909699
3.824	-0.010777855144978
3.826	0.0128717618040585
3.828	0.031576181346073
3.83	0.0347288696740976
3.832	0.0217131217093
3.834	-0.0023165748758778
3.836	-0.0202013831752216
3.838	-0.0295972893642234
3.84	-0.0195171151375528
3.842	-0.00719382218028351
3.844	0.00692957770227642
3.846	0.0140825991944721
3.848	0.0166564824501004
3.85	0.00700000000000388
3.852	-0.00969874310190159
3.854	-0.0104432789694697
3.856	0.00105901220601855
3.858	0.0195831424052818
3.86	0.0420171151375446
3.862	0.0667079691392209
3.864	0.0752127932669229
3.866	0.0729272546508793
3.868	0.0680791389425132
3.87	0.0592711303259034
3.872	0.062716079305729
3.874	0.0599889179709326
3.876	0.0567892652366691
3.878	0.0590683709659665
3.88	0.0480633909777116
3.882	0.0261478156931757
3.884	0.00129361423093595
3.886	-0.0157463686865058
3.888	-0.0270349911033297
3.89	-0.0194942949541528
3.892	-0.0152443186905518
3.894	-0.00629509292459655
3.896	-0.00659757499068905
3.898	-0.016726068426349
3.9	-0.033749999999995
3.902	-0.041773931573644
3.904	-0.0429024250093092
3.906	-0.0342049070754043
3.908	-0.0207556813094532
3.91	-0.0165057050458522
3.912	-0.0179650088966714
3.914	-0.0382536313134907
3.916	-0.0642936142309292
3.918	-0.0958978156931768
3.92	-0.115563390977709
3.922	-0.106318370965969
3.924	-0.0995392652366791
3.926	-0.0937389179709384
3.928	-0.0807160793057319
3.93	-0.0817711303259029
3.932	-0.0905791389425078
3.934	-0.104427254650872
3.936	-0.11571279326692
3.938	-0.11395796913922
3.94	-0.100517115137551
3.942	-0.0758331424052837
3.944	-0.0460590122060238
3.946	-0.03455672103053
3.948	-0.0263012568980918
3.95	-0.0362499999999978
3.952	-0.0459064824500965
3.954	-0.0545825991944725
3.956	-0.0541795777022817
3.958	-0.0468061778197229
3.96	-0.0412328848624571
3.962	-0.0311527106357779
3.964	-0.038298616824776
3.966	-0.0516834251241206
3.968	-0.0622131217092946
3.97	-0.0707288696740957
3.972	-0.0698261813460785
3.974	-0.053371761804063
3.976	-0.0387221448550277
3.978	-0.0297923088090307
3.98	-0.0171866090222897
3.982	-0.0199915045318226
3.984	-0.0314449756773622
3.986	-0.0418856889115077
3.988	-0.0362427304515235
3.99	-0.0267442949541514
3.992	-0.0222020580387443
3.994	-0.0166844131496008
3.996	-0.0190861648989902
3.998	-0.0358653886513545
4	-0.0584999999999962
4.002	-0.0743846113486399
4.004	-0.0911638351010074
4.006	-0.0890655868504053
4.008	-0.0812979419612619
4.01	-0.0745057050458535
4.012	-0.074007269548478
4.014	-0.0841143110884898
4.016	-0.0968050243226306
4.018	-0.106008495468171
4.02	-0.106563390977707
4.022	-0.098457691190968
4.024	-0.0760278551449785
4.026	-0.0546282381959434
4.028	-0.0336738186539274
4.03	-0.037271130325902
4.032	-0.0547868782906997
4.034	-0.0675665748758732
4.036	-0.0832013831752174
4.038	-0.0858472893642224
4.04	-0.0780171151375493
4.042	-0.0589438221802848
4.044	-0.0425704222977246
4.046	-0.0399174008055285
4.048	-0.0350935175498993
4.05	-0.0514999999999961
4.052	-0.0591987431019024
4.054	-0.0621932789694691
4.056	-0.0506909877939812
4.058	-0.0344168575947237
4.06	-0.00298288486245991
4.062	0.0239579691392221
4.064	0.0324627932669231
4.066	0.0324272546508784
4.068	0.0230791389425128
4.07	0.0142711303259038
4.072	0.00871607930572878
4.074	0.0127389179709319
4.076	0.0207892652366685
4.078	0.0253183709659638
4.08	0.0255633909777112
4.082	0.010397815693183
4.084	-0.012206385769057
4.086	-0.0224963686865076
4.088	-0.0405349911033294
4.09	-0.0374942949541528
4.092	-0.0264943186905509
4.094	-0.0175450929245961
4.096	-0.00884757499069054
4.098	-0.0189760684263489
4.1	-0.0269999999999937
4.102	-0.0282739315736451
4.104	-0.0316524250093085
4.106	-0.031954907075407
4.108	-0.0275056813094595
4.11	-0.0300057050458494
4.112	-0.0472150088966711
4.114	-0.0810036313134894
4.116	-0.122793614230928
4.118	-0.170147815693177
4.12	-0.205563390977709
4.122	-0.241318370965969
4.124	-0.284039265236678
4.126	-0.320988917970939
4.128	-0.357466079305732
4.13	-0.378771130325901
4.132	-0.385329138942504
4.134	-0.387927254650875
4.136	-0.37221279326692
4.138	-0.329957969139223
4.14	-0.267017115137554
4.142	-0.204083142405285
4.144	-0.133809012206024
4.146	-0.0593067210305294
4.148	-0.00380125689809305
4.15	0.0267500000000034
4.152	0.0305935175499049
4.154	0.0241674008055275
4.156	0.0200704222977162
4.158	0.0161938221802823
4.16	0.0240171151375464
4.162	0.0295972893642214
4.164	0.0179513831752232
4.166	-0.00443342512412116
4.168	-0.0307131217092938
4.17	-0.0414788696740961
4.172	-0.0428261813460788
4.174	-0.0376217618040634
4.176	-0.0139721448550282
4.178	0.0107076911909673
4.18	0.0233133909777096
4.182	0.0205084954681738
4.184	0.0113050243226338
4.186	-0.00138568891150753
4.188	-0.0047427304515231
4.19	-0.00649429495415235
4.192	0.000297941961255578
4.194	-0.000934413149600757
4.196	-0.00558616489898894
4.198	-0.0246153886513536
4.2	-0.0427499999999963
4.202	-0.0676346113486412
4.204	-0.0799138351010068
4.206	-0.0845655868504034
4.208	-0.0790479419612602
4.21	-0.0767557050458508
4.212	-0.0762572695484776
4.214	-0.084114311088489
4.216	-0.0990550243226301
4.218	-0.10150849546817
4.22	-0.097563390977707
4.222	-0.0849576911909683
4.224	-0.0670278551449773
4.226	-0.047878238195944
4.228	-0.0359238186539275
4.23	-0.0417711303259027
4.232	-0.059286878290703
4.234	-0.0788165748758767
4.236	-0.0944513831752218
4.238	-0.0970972893642244
4.24	-0.0870171151375495
4.242	-0.070193822180286
4.244	-0.0560704222977246
4.246	-0.0534174008055269
4.248	-0.0598435175498995
4.25	-0.0739999999999949
4.252	-0.0839487431019002
4.254	-0.0824432789694728
4.256	-0.0709409877939781
4.258	-0.0479168575947202
4.26	-0.0119828848624562
4.262	0.00595796913921787
4.264	0.00546279326692315
4.266	0.00767725465088068
4.268	-0.00392086105748637
4.27	-0.0149788696740955
4.272	-0.0182839206942714
4.274	-0.0165110820290687
4.276	-0.0152107347633322
4.278	-0.00393162903403602
4.28	-0.00593660902229258
4.282	-0.0188521843068208
4.284	-0.0392063857690612
4.286	-0.0607463686865025
4.288	-0.0697849911033299
4.29	-0.0712442949541537
4.292	-0.060244318690552
4.294	-0.051295092924599
4.296	-0.0560975749906891
4.298	-0.0639760684263489
4.3	-0.0719999999999935
4.302	-0.0845239315736417
4.304	-0.0924024250093092
4.306	-0.085954907075405
4.308	-0.0860056813094534
4.31	-0.0727557050458522
4.312	-0.0764650088966717
4.314	-0.0877536313134894
4.316	-0.111543614230928
4.318	-0.131897815693169
4.32	-0.147063390977709
4.322	-0.15356837096597
4.324	-0.149039265236681
4.326	-0.138738917970943
4.328	-0.13696607930573
4.33	-0.140271130325902
4.332	-0.158079138942507
4.334	-0.171927254650873
4.336	-0.180962793266919
4.338	-0.16795796913922
4.34	-0.150017115137554
4.342	-0.127583142405293
4.344	-0.104559012206023
4.346	-0.0840567210305288
4.348	-0.089301256898092
4.35	-0.101499999999993
4.352	-0.108906482450097
4.354	-0.115332599194474
4.356	-0.103679577702281
4.358	-0.0963061778197243
4.36	-0.0817328848624538
4.362	-0.0694027106357784
4.364	-0.0720486168247762
4.366	-0.0831834251241158
4.368	-0.100463121709294
4.37	-0.115728869674096
4.372	-0.103576181346079
4.374	-0.0916217618040696
4.376	-0.0724721448550245
4.378	-0.0477923088090311
4.38	-0.0329366090222894
4.382	-0.028991504531823
4.384	-0.0336949756773658
4.386	-0.0373856889115075
4.388	-0.0429927304515236
4.39	-0.0379942949541552
4.392	-0.0267020580387456
4.394	-0.0144344131496017
4.396	-0.0123361648989914
4.398	-0.015615388651346
4.4	-0.0382500000000009
4.402	-0.0563846113486447
4.404	-0.0641638351010077
4.406	-0.0643155868504038
4.408	-0.0610479419612594
4.41	-0.0520057050458518
4.412	-0.0447572695484781
4.414	-0.0526143110884864
4.416	-0.0608050243226297
4.418	-0.06550849546817
4.42	-0.0615633909777068
4.422	-0.0489576911909722
4.424	-0.0287778551449736
4.426	-0.00512823819593888
4.428	0.00457618134607428
4.43	0.00547886967409764
4.432	-0.00753687829070224
4.434	-0.0248165748758759
4.436	-0.0382013831752213
4.438	-0.0318472893642245
4.44	-0.021767115137552
4.442	-0.00269382218028626
4.444	0.0159295777022754
4.446	0.011832599194473
4.448	0.00765648245009815
4.45	-0.0109999999999983
4.452	-0.0209487431019018
4.454	-0.0194432789694724
4.456	-0.00794098779397609
4.458	0.0195831424052797
4.46	0.0577671151375439
4.462	0.0779579691392183
4.464	0.0932127932669239
4.466	0.0819272546508816
4.468	0.0703291389425152
4.47	0.0547711303259048
4.472	0.0537160793057303
4.474	0.0622389179709349
4.476	0.0702892652366713
4.478	0.0815683709659654
4.48	0.084063390977708
4.482	0.0643978156931773
4.484	0.041793614230939
4.486	0.0270036313134975
4.488	0.0157150088966695
4.49	0.0142557050458453
4.492	0.016255681309447
4.494	0.0229549070754001
4.496	0.0271524250093102
4.498	0.02602393157365
4.5	0.0180000000000021
4.502	0.00997606842635504
4.504	0.011097574990691
4.506	0.0175450929245942
4.508	0.0219943186905456
4.51	0.0239942949541468
4.512	0.0225349911033293
4.514	0.0112463686865105
4.516	-0.0102936142309279
4.518	-0.0261478156931691
4.52	-0.0368133909777049
4.522	-0.0433183709659684
4.524	-0.036539265236677
4.526	-0.0307389179709405
4.528	-0.0289660793057322
4.53	-0.0322711303259025
4.532	-0.0388291389425063
4.534	-0.0549272546508717
4.536	-0.0549627932669196
4.538	-0.0374579691392197
4.54	-0.0105171151375515
4.542	0.00741685759470659
4.544	0.04169098779397
4.546	0.0441932789694716
4.548	0.0501987431019057
4.55	0.0357500000000035
4.552	0.0148435175499053
4.554	0.00391740080552685
4.556	0.0200704222977173
4.558	0.0409438221802755
4.56	0.0532671151375428
4.562	0.0588472893642217
4.564	0.0652013831752244
4.566	0.042816574875885
4.568	0.0232868782907107
4.57	0.0102711303259033
4.572	0.0134238186539229
4.574	0.0208782381959342
4.576	0.0422778551449691
4.578	0.0669576911909687
4.58	0.0728133909777115
4.582	0.0722584954681796
4.584	0.0630550243226384
4.586	0.0526143110884926
4.588	0.0447572695484759
4.59	0.0497557050458439
4.592	0.0610479419612515
4.594	0.0575655868504002
4.596	0.0596638351010078
4.598	0.0451346113486483
4.6	0.0247500000000082
4.602	0.00661538865135736
4.604	-0.0101638351010083
4.606	-0.0193155868504048
4.608	-0.0205479419612624
4.61	-0.0160057050458527
4.612	-0.0132572695484778
4.614	-0.0188643110884864
4.616	-0.0293050243226255
4.618	-0.0362584954681735
4.62	-0.0345633909777081
4.622	-0.0174576911909705
4.624	0.00947214485501996
4.626	0.0151217618040606
4.628	0.0203261813460749
4.63	0.023478869674098
4.632	0.0104631217093022
4.634	-0.00681657487587508
4.636	-0.0179513831752207
4.638	-0.0183472893642244
4.64	-0.00826711513755538
4.642	0.0108061778197158
4.644	0.0204295777022783
4.646	0.0163325991944733
4.648	0.0121564824501009
4.65	0.0025000000000029
4.652	-0.00969874310190301
4.654	-0.0104432789694705
4.656	0.00780901220601542
4.658	0.0375831424052819
4.66	0.0667671151375439
4.662	0.0869579691392187
4.664	0.0954627932669238
4.666	0.0886772546508782
4.668	0.063579138942512
4.67	0.0592711303259038
4.672	0.0582160793057285
4.674	0.0644889179709343
4.676	0.0837892652366706
4.678	0.088318370965965
4.68	0.0863133909777123
4.682	0.0733978156931735
4.684	0.0507936142309374
4.686	0.0247536313134974
4.688	0.0179650088966705
4.69	0.018755705045848
4.692	0.0275056813094504
4.694	0.0342049070754022
4.696	0.0384024250093105
4.698	0.03952393157365
4.7	0.0360000000000046
4.702	0.0189760684263573
4.704	0.0155975749906906
4.706	0.0130450929245963
4.708	0.0219943186905445
4.71	0.0374942949541459
4.712	0.031534991103328
4.714	0.0224963686865066
4.716	0.00545638576906789
4.718	-0.0103978156931729
4.72	-0.0278133909777064
4.722	-0.0298183709659689
4.724	-0.0230392652366776
4.726	-0.0194889179709411
4.728	-0.0154660793057331
4.73	-0.0165211303259036
4.732	-0.0230791389425054
4.734	-0.0369272546508707
4.736	-0.0324627932669188
4.738	-0.0239579691392184
4.74	-0.00151711513754777
4.742	0.0276668575947132
4.744	0.0484409877939731
4.746	0.0554432789694722
4.748	0.0546987431019067
4.75	0.0447500000000046
4.752	0.032843517549904
4.754	0.0219174008055268
4.756	0.0403204222977173
4.758	0.0544438221802731
4.76	0.0600171151375427
4.762	0.0790972893642216
4.764	0.0674513831752225
4.766	0.0518165748758815
4.768	0.0277868782907074
4.77	0.0260211303259043
4.772	0.0246738186539234
4.774	0.0366282381959336
4.776	0.0670278551449686
4.778	0.0872076911909647
4.78	0.0908133909777102
4.782	0.09025849546818
4.784	0.0810550243226406
4.786	0.0616143110884952
4.788	0.0492572695484763
4.79	0.0565057050458466
4.792	0.0610479419612549
4.794	0.0643155868503998
4.796	0.0641638351010072
4.798	0.0586346113486481
4.8	0.0337500000000059
4.802	0.0156153886513649
4.804	-0.00116383510100918
4.806	-0.0125655868504058
4.808	-0.0092979419612635
4.81	-0.00475570504585552
4.812	-0.00650726954847747
4.814	-0.00761431108848744
4.816	-0.0113050243226295
4.818	-0.0160084954681703
4.82	-0.0233133909777079
4.822	-0.0174576911909708
4.824	-0.00627785514498041
4.826	0.0128717618040545
4.828	0.0270761813460767
4.83	0.0302288696740984
4.832	0.014963121709303
4.834	0.00668342512413028
4.836	-0.0022013831752225
4.838	-0.00709728936422335
4.84	-0.00151711513755188
4.842	0.0153061778197112
4.844	0.0226795777022765
4.846	0.0208325991944738
4.848	0.00765648245010185
4.85	-0.00199999999999365
4.852	-0.0141987431019053
4.854	-0.0126932789694698
4.856	0.00780901220601746
4.858	0.035333142405271
4.86	0.0600171151375499
4.862	0.0757079691392199
4.864	0.0797127932669222
4.866	0.072927254650881
4.868	0.0613291389425128
4.87	0.0457711303259042
4.872	0.0402160793057276
4.874	0.0509889179709305
4.876	0.0657892652366741
4.878	0.0725683709659645
4.88	0.0660633909777122
4.882	0.0463978156931848
4.884	0.0170436142309332
4.886	0.00225363131349351
4.888	-0.0135349911033292
4.89	-0.0127442949541548
4.892	-0.00174431869055066
4.894	0.0162049070754014
4.896	0.0226524250093123
4.898	0.0192739315736534
4.9	0.00675000000000025
4.902	-0.00127393157364381
4.904	-0.00915242500930975
4.906	-0.00945490707540961
4.908	-0.00725568130945204
4.91	0.00824429495414861
4.912	0.0135349911033283
4.914	0.0157463686865118
4.916	0.00320638576906627
4.918	-0.0126478156931726
4.92	-0.0278133909777065
4.922	-0.0275683709659688
4.924	-0.0230392652366741
4.926	-0.0172389179709375
4.928	-0.0109660793057333
4.93	-0.0165211303259011
4.932	-0.0253291389425079
4.934	-0.0279272546508741
4.936	-0.0302127932669205
4.938	-0.0194579691392227
4.94	0.00523288486245228
4.942	0.0366668575947132
4.944	0.0506909877939752
4.946	0.0554432789694674
4.948	0.0569487431019045
4.95	0.0515000000000013
4.952	0.035093517549905
4.954	0.0331674008055273
4.956	0.0448204222977202
4.958	0.0656938221802773
4.96	0.0825171151375439
4.962	0.0948472893642226
4.964	0.0854513831752231
4.966	0.0563165748758823
4.968	0.0435368782907082
4.97	0.0305211303259047
4.972	0.0291738186539252
4.974	0.0523782381959387
4.976	0.0782778551449681
4.978	0.100707691190965
4.98	0.10206339097771
4.982	0.0925084954681765
4.984	0.0833050243226366
4.986	0.0683643110884941
4.988	0.0605072695484765
4.99	0.0655057050458457
4.992	0.0700479419612537
4.994	0.0823155868503988
4.996	0.0866638351010085
4.998	0.0698846113486446
5	0.0450000000000013
5.002	0.0201153886513625
5.004	-0.00116383510100515
5.006	-0.00581558685040388
5.008	-0.00479794196126014
5.01	0.0109942949541472
5.012	0.0137427304515222
5.014	0.0148856889115126
5.016	0.00669497567737272
5.018	0.00424150453183012
5.02	0.00818660902229203
5.022	0.0140423088090309
5.024	0.0162221448550233
5.026	0.017371761804054
5.028	0.00682618134607153
5.03	-0.0147711303259027
5.032	-0.048036878290701
5.034	-0.0765665748758733
5.036	-0.116951383175219
5.038	-0.151097289364223
5.04	-0.181517115137552
5.042	-0.214193822180289
5.044	-0.260820422297727
5.046	-0.29416740080553
5.048	-0.3028435175499
5.05	-0.310249999999992
5.052	-0.295448743101901
5.054	-0.260193278969469
5.056	-0.203690987793979
5.058	-0.140166857594722
5.06	-0.0749828848624601
5.062	-0.00529203086077754
5.064	0.050462793266923
5.066	0.095427254650882
5.068	0.119829138942516
5.07	0.115521130325903
5.072	0.105466079305729
5.074	0.104988917970929
5.076	0.115289265236667
5.078	0.115318370965966
5.08	0.104313390977711
5.082	0.082397815693181
5.084	0.0485436142309409
5.086	0.0247536313134934
5.088	0.00671500889666952
5.09	0.00975570504584428
5.092	0.0185056813094451
5.094	0.0387049070754034
5.096	0.0496524250093116
5.098	0.0507739315736535
5.1	0.0382500000000095
5.102	0.0234760684263562
5.104	0.0110975749906914
5.106	0.00854509292459245
5.108	0.0129943186905437
5.11	0.0194942949541477
5.112	0.0225349911033278
5.114	0.0157463686865117
5.116	-0.00579361423092605
5.118	-0.0126478156931776
5.12	-0.023313390977708
5.122	-0.0320683709659673
5.124	-0.0320392652366813
5.126	-0.0262389179709381
5.128	-0.0177160793057316
5.13	-0.0255211303259021
5.132	-0.0320791389425048
5.134	-0.0369272546508718
5.136	-0.0369627932669197
5.138	-0.0307079691392223
5.14	-0.00826711513755546
5.142	0.0119168575947177
5.144	0.0326909877939783
5.146	0.0396932789694691
5.148	0.0344487431019092
5.15	0.0245000000000024
5.152	0.0238435175499026
5.154	0.0219174008055275
5.156	0.0268204222977171
5.158	0.0409438221802771
5.16	0.0532671151375437
5.162	0.0543472893642206
5.164	0.0427013831752265
5.166	0.0270665748758787
5.168	0.00978687829070397
5.17	-0.00547886967409636
5.172	-7.61813460799002E-05
5.174	0.0253782381959382
5.176	0.0490278551449736
5.178	0.0692076911909662
5.18	0.0773133909777103
5.182	0.0722584954681769
5.184	0.049555024322637
5.186	0.0346143110884942
5.188	0.0245072695484761
5.19	0.0227557050458502
5.192	0.0340479419612571
5.194	0.0463155868504007
5.196	0.0439138351010125
5.198	0.0316346113486444
5.2	0.00450000000000125
5.202	-0.027134611348641
5.204	-0.0484138351010079
5.206	-0.0553155868504062
5.208	-0.0542979419612613
5.21	-0.0542557050458537
5.212	-0.0425072695484783
5.214	-0.0391143110884898
5.216	-0.0518050243226313
5.218	-0.0655084954681703
5.22	-0.0705633909777078
5.222	-0.0737076911909693
5.224	-0.0625278551449772
5.226	-0.0523782381959423
5.228	-0.0404238186539266
5.23	-0.0485211303259023
5.232	-0.0525368782907002
5.234	-0.0585665748758738
5.236	-0.0697013831752185
5.238	-0.0723472893642222
5.24	-0.0712671151375504
5.242	-0.0656938221802848
5.244	-0.0628204222977237
5.246	-0.0624174008055291
5.248	-0.0778435175499003
5.25	-0.0919999999999958
5.252	-0.0996987431019029
5.254	-0.0981932789694721
5.256	-0.0776909877939792
5.258	-0.0546668575947224
5.26	-0.0254828848624577
5.262	-0.018792030860784
5.264	-0.0192872067330768
5.266	-0.0283227453491214
5.268	-0.0399208610574882
5.27	-0.0487288696740944
5.272	-0.0452839206942709
5.274	-0.0345110820290678
5.276	-0.0197107347633314
5.278	-0.0129316290340339
5.28	-0.0171866090222894
5.282	-0.0413521843068188
5.284	-0.0617063857690589
5.286	-0.0809963686865014
5.288	-0.0877849911033302
5.29	-0.0869942949541511
5.292	-0.0669943186905515
5.294	-0.0512950929246025
5.296	-0.0403475749906888
5.298	-0.0392260684263498
5.3	-0.0472499999999948
5.302	-0.0620239315736403
5.304	-0.069902425009309
5.306	-0.0634549070754071
5.308	-0.0522556813094574
5.31	-0.0390057050458551
5.312	-0.0247150088966719
5.314	-0.0270036313134908
5.316	-0.0372936142309302
5.318	-0.0463978156931663
5.32	-0.0615633909777103
5.322	-0.0703183709659678
5.324	-0.0657892652366777
5.326	-0.0554889179709418
5.328	-0.0402160793057318
5.33	-0.0457711303259018
5.332	-0.052329138942504
5.334	-0.045927254650869
5.336	-0.0437127932669195
5.338	-0.0329579691392211
5.34	-0.0172671151375536
5.342	0.00741685759470899
5.344	0.0281909877939785
5.346	0.0441932789694697
5.348	0.0389487431019076
5.35	0.0290000000000059
5.352	0.0305935175499036
5.354	0.028667400805528
5.356	0.0403204222977171
5.358	0.0544438221802725
5.36	0.0645171151375472
5.362	0.06109728936422
5.364	0.0562013831752229
5.366	0.0473165748758841
5.368	0.0277868782907047
5.37	0.019271130325904
5.372	0.0269238186539219
5.374	0.047878238195932
5.376	0.0715278551449731
5.378	0.0894576911909681
5.38	0.0953133909777105
5.382	0.0902584954681801
5.384	0.067555024322633
5.386	0.0593643110884918
5.388	0.0470072695484765
5.39	0.0542557050458475
5.392	0.0677979419612552
5.394	0.0800655868503997
5.396	0.0821638351010117
5.398	0.0631346113486519
5.4	0.0315000000000012
5.402	0.00436538865135882
5.404	-0.0146638351010084
5.406	-0.0283155868504066
5.408	-0.0205479419612586
5.41	-0.00925570504585101
5.412	-0.00200726954847629
5.414	-0.00311431108848716
5.416	-0.00905502432263086
5.418	-0.0160084954681699
5.42	-0.0233133909777068
5.422	-0.0242076911909733
5.424	-0.00627785514497775
5.426	0.00612176180405724
5.428	0.0113261813460732
5.43	0.0189788696740988
5.432	0.0172131217092966
5.434	0.00218342512412703
5.436	-0.0112013831752222
5.438	-0.0138472893642232
5.44	-0.00826711513755426
5.442	-0.00269382218028501
5.444	0.000179577702273366
5.446	0.00283259919447086
5.448	-0.00584351754989928
5.45	-0.00874999999999922
5.452	-0.00294874310190181
5.454	0.000806721030528271
5.456	0.0168090122060239
5.458	0.0398331424052776
5.46	0.060017115137546
5.462	0.0734579691392169
5.464	0.0752127932669264
5.466	0.0661772546508809
5.468	0.0568291389425166
5.47	0.0547711303259045
5.472	0.0627160793057289
5.474	0.0689889179709358
5.476	0.0815392652366679
5.478	0.0883183709659654
5.48	0.0795633909777069
5.482	0.0576478156931814
5.484	0.028293614230937
5.486	0.00675363131349848
5.488	-0.00453499110333158
5.49	0.000755705045847902
5.492	0.0185056813094436
5.494	0.0297049070753996
5.496	0.0384024250093126
5.498	0.0372739315736469
5.5	0.0202500000000054
5.502	0.00322606842635636
5.504	-0.00240242500930875
5.506	-0.000454907075407898
5.508	0.00849431869054675
5.51	0.0217442949541439
5.512	0.0315349911033307
5.514	0.0202463686865091
5.516	0.00545638576907439
5.518	-0.0148978156931701
5.52	-0.0300633909777046
5.522	-0.0455683709659685
5.524	-0.0455392652366785
5.526	-0.0352389179709382
5.528	-0.0267160793057337
5.53	-0.0165211303259014
5.532	-0.0208291389425071
5.534	-0.027927254650868
5.536	-0.0324627932669196
5.538	-0.0217079691392185
5.54	-0.00826711513755719
5.542	0.011916857594709
5.544	0.0326909877939689
5.546	0.0441932789694701
5.548	0.0411987431019086
5.55	0.0380000000000025
5.552	0.0373435175499063
5.554	0.0331674008055285
5.556	0.04032042229772
5.558	0.0544438221802722
5.56	0.0645171151375438
5.562	0.0655972893642201
5.564	0.0562013831752259
5.566	0.0428165748758836
5.568	0.0277868782907132
5.57	0.023771130325903
5.572	0.0246738186539218
5.574	0.0411282381959357
5.576	0.0670278551449666
5.578	0.0827076911909678
5.58	0.0863133909777115
5.582	0.0790084954681805
5.584	0.0608050243226385
5.586	0.0481143110884919
5.588	0.0492572695484752
5.59	0.0565057050458465
5.592	0.0632979419612478
5.594	0.0733155868504003
5.596	0.0731638351010111
5.598	0.0563846113486484
5.6	0.0270000000000103
5.602	-0.000134611348641379
5.604	-0.0169138351010093
5.606	-0.0260655868504076
5.608	-0.0160479419612616
5.61	-0.00250570504585196
5.612	0.00474273045152238
5.614	-0.000864311088487106
5.616	-0.00680502432262227
5.618	-0.0137584954681734
5.62	-0.0255633909777067
5.622	-0.0242076911909694
5.624	-0.0130278551449842
5.626	0.00612176180405676
5.628	0.018076181346075
5.63	0.0257288696740991
5.632	0.021713121709301
5.634	0.00218342512412225
5.636	-0.00670138317521915
5.638	-0.00934728936422433
5.64	-0.0105171151375577
5.642	0.00180617781971925
5.644	0.0159295777022763
5.646	0.0118325991944711
5.648	0.00315648245010344
5.65	0.00250000000000651
5.652	0.00155125689809662
5.654	0.0120567210305292
5.656	0.0168090122060172
5.658	0.0420831424052821
5.66	0.0622671151375424
5.662	0.0712079691392182
5.664	0.0797127932669263
5.666	0.0751772546508774
5.668	0.0635791389425141
5.67	0.0637711303259035
5.672	0.069466079305727
5.674	0.084738917970931
5.676	0.0995392652366714
5.678	0.099568370965963
5.68	0.0863133909777112
5.682	0.0621478156931755
5.684	0.0395436142309428
5.686	0.020253631313496
5.688	0.0134650088966694
5.69	0.0232557050458506
5.692	0.0297556813094471
5.694	0.043204907075403
5.696	0.0474024250093111
5.698	0.0485239315736524
5.7	0.029250000000001
5.702	0.0122260684263597
5.704	0.00209757499069057
5.706	0.00629509292459627
5.708	0.0174943186905412
5.71	0.0329942949541466
5.712	0.0405349911033293
5.714	0.0314963686865066
5.716	0.0167063857690702
5.718	-0.00589781569317388
5.72	-0.0278133909777061
5.722	-0.0455683709659709
5.724	-0.0410392652366768
5.726	-0.032988917970943
5.728	-0.0222160793057319
5.73	-0.0187711303259025
5.732	-0.0185791389425023
5.734	-0.0301772546508727
5.736	-0.0257127932669164
5.738	-0.0217079691392172
5.74	-0.0105171151375512
5.742	0.00516685759471344
5.744	0.032690987793972
5.746	0.046443278969471
5.748	0.0524487431019064
5.75	0.0492500000000082
5.752	0.0418435175499033
5.754	0.0399174008055284
5.756	0.051570422297715
5.758	0.0544438221802765
5.76	0.0600171151375399
5.762	0.0633472893642199
5.764	0.053951383175224
5.766	0.04056657487588
5.768	0.0255368782907092
5.77	0.028271130325904
5.772	0.0291738186539236
5.774	0.054628238195931
5.776	0.0692778551449703
5.778	0.0849576911909639
5.78	0.0795633909777102
5.782	0.0655084954681791
5.784	0.0450550243226433
5.786	0.0301143110884945
5.788	0.0335072695484756
5.79	0.0430057050458492
5.792	0.0587979419612512
5.794	0.0688155868503999
5.796	0.0619138351010084
5.798	0.0406346113486515
5.8	0.00900000000000568
5.802	-0.0203846113486338
5.804	-0.0416638351010102
5.806	-0.0553155868504036
5.808	-0.0362979419612672
5.81	-0.0227557050458548
5.812	-0.0222572695484766
5.814	-0.0256143110884895
5.816	-0.0338050243226263
5.818	-0.0520084954681702
5.82	-0.0683133909777079
5.822	-0.0647076911909716
5.824	-0.0535278551449787
5.826	-0.0343782381959494
5.828	-0.0246738186539236
5.83	-0.0237711303259019
5.832	-0.0390368782906942
5.834	-0.0540665748758724
5.836	-0.069701383175221
5.838	-0.0790972893642233
5.84	-0.0825171151375565
5.842	-0.0769438221802854
5.844	-0.0695704222977208
5.846	-0.0669174008055281
5.848	-0.0620935175498989
5.85	-0.06949999999999
5.852	-0.0726987431019057
5.854	-0.0644432789694691
5.856	-0.0484409877939876
5.858	-0.0344168575947266
5.86	-0.0097328848624539
5.862	0.00370796913921941
5.864	0.0122127932669246
5.866	0.00317725465088026
5.868	-0.00167086105748901
5.87	-0.00822886967409474
5.872	-0.000283920694271252
5.874	0.00598891797092731
5.876	0.0230392652366749
5.878	0.0253183709659649
5.88	0.00981339097771246
5.882	-0.00760218430681719
5.884	-0.0369563857690632
5.886	-0.0562463686865066
5.888	-0.0607849911033303
5.89	-0.0487442949541522
5.892	-0.0377443186905495
5.894	-0.0220450929246007
5.896	-0.0110975749906878
5.898	-0.0212260684263464
5.9	-0.040500000000001
5.902	-0.0552739315736436
5.904	-0.0609024250093095
5.906	-0.0679549070754067
5.908	-0.0477556813094554
5.91	-0.0322557050458506
5.912	-0.0337150088966711
5.914	-0.0360036313134883
5.916	-0.048543614230934
5.918	-0.0711478156931697
5.92	-0.0953133909777076
5.922	-0.108568370965971
5.924	-0.104039265236673
5.926	-0.0892389179709408
5.928	-0.0852160793057345
5.93	-0.0772711303259014
5.932	-0.0838291389425055
5.934	-0.0864272546508761
5.936	-0.090962793266918
5.938	-0.0869579691392215
5.94	-0.0690171151375475
5.942	-0.0420831424052889
5.944	-0.0258090122060249
5.946	-0.00530672103053159
5.948	-0.00380125689809591
5.95	-0.00474999999999514
5.952	-0.00990648245009244
5.954	-0.00733259919447271
5.956	-0.00242957770228392
5.958	0.000443822180280752
5.96	-0.000732884862456588
5.962	-0.022152710635779
5.964	-0.0607986168247778
5.966	-0.0944334251241148
5.968	-0.129713121709294
5.97	-0.165228869674094
5.972	-0.184576181346074
5.974	-0.206371761804065
5.976	-0.232222144855034
5.978	-0.277292308809034
5.98	-0.325436609022288
5.982	-0.337241504531824
5.984	-0.346444975677359
5.986	-0.334385688911508
5.988	-0.301742730451524
5.99	-0.253994294954155
5.992	-0.204452058038745
5.994	-0.144934413149604
5.996	-0.100086164898992
5.998	-0.0673653886513542
6	-0.0404999999999875
6.002	-0.0293846113486374
6.004	-0.0461638351010059
6.006	-0.0643155868504016
6.008	-0.0542979419612638
6.01	-0.049755705045852
6.012	-0.0492572695484769
6.014	-0.0616143110884857
6.016	-0.0810550243226303
6.018	-0.103758495468166
6.02	-0.111063390977708
6.022	-0.10970769119097
6.024	-0.0940278551449749
6.026	-0.0703782381959443
6.028	-0.0516738186539307
6.03	-0.046271130325903
6.032	-0.0502868782906975
6.034	-0.060816574875876
6.036	-0.0764513831752176
6.038	-0.085847289364224
6.04	-0.082517115137553
6.042	-0.0724438221802923
6.044	-0.067320422297724
6.046	-0.0624174008055279
6.048	-0.0598435175499012
6.05	-0.0672499999999957
6.052	-0.0749487431018976
6.054	-0.0644432789694688
6.056	-0.0529409877939826
6.058	-0.0366668575947221
6.06	-0.0119828848624616
6.062	0.00370796913921895
6.064	0.00771279326692299
6.066	0.000927254650885646
6.068	-0.00167086105748588
6.07	-0.00372886967409578
6.072	-0.00253392069427021
6.074	0.0104889179709309
6.076	0.0162892652366635
6.078	0.0140683709659663
6.08	0.00306339097771096
6.082	-0.016602184306821
6.084	-0.0437063857690555
6.086	-0.0674963686865055
6.088	-0.06978499110333
6.09	-0.0577442949541568
6.092	-0.0444943186905538
6.094	-0.0355450929245987
6.096	-0.0335975749906885
6.098	-0.0459760684263475
6.1	-0.0562499999999872
6.102	-0.0777739315736447
6.104	-0.0901524250093102
6.106	-0.0814549070754046
6.108	-0.0635056813094597
6.11	-0.0457557050458553
6.112	-0.0427150088966708
6.114	-0.0517536313134873
6.116	-0.0710436142309263
6.118	-0.100397815693173
6.12	-0.122313390977709
6.122	-0.137818370965969
6.124	-0.137789265236685
6.126	-0.122988917970937
6.128	-0.112216079305733
6.13	-0.113271130325902
6.132	-0.119829138942502
6.134	-0.122427254650871
6.136	-0.12471279326692
6.138	-0.122957969139222
6.14	-0.105017115137555
6.142	-0.0803331424052845
6.144	-0.0595590122060199
6.146	-0.0390567210305312
6.148	-0.0465512568980879
6.15	-0.0587500000000008
6.152	-0.0639064824500948
6.154	-0.0635825991944725
6.156	-0.0676795777022871
6.158	-0.0625561778197262
6.16	-0.0547328848624531
6.162	-0.0604027106357797
6.164	-0.0630486168247744
6.166	-0.0809334251241183
6.168	-0.0959631217092972
6.17	-0.108978869674095
6.172	-0.101326181346081
6.174	-0.0848717618040601
6.176	-0.0747221448550307
6.178	-0.0635423088090323
6.18	-0.0599366090222883
6.182	-0.07849150453182
6.184	-0.0876949756773629
6.186	-0.0913856889115041
6.188	-0.0924927304515245
6.19	-0.100994294954153
6.192	-0.100952058038742
6.194	-0.0886844131496021
6.196	-0.0933361648989882
6.198	-0.110115388651358
6.2	-0.139499999999994
6.202	-0.171134611348643
6.204	-0.185663835101007
6.206	-0.192565586850406
6.208	-0.18254794196126
6.21	-0.173505705045857
6.212	-0.164007269548477
6.214	-0.165114311088488
6.216	-0.177805024322632
6.218	-0.193758495468169
6.22	-0.196563390977706
6.222	-0.190707691190968
6.224	-0.17277785514498
6.226	-0.149128238195941
6.228	-0.130423818653928
6.23	-0.120521130325901
6.232	-0.115536878290701
6.234	-0.123816574875871
6.236	-0.134951383175219
6.238	-0.139847289364223
6.24	-0.134267115137549
6.242	-0.117443822180288
6.244	-0.0988204222977229
6.246	-0.080417400805529
6.248	-0.077843517549897
6.25	-0.0829999999999991
6.252	-0.0884487431018999
6.254	-0.0711932789694714
6.256	-0.0574409877939795
6.258	-0.0321668575947245
6.26	-0.0187328848624579
6.262	0.00595796913921468
6.264	0.0144627932669213
6.266	0.0189272546508822
6.268	0.023079138942511
6.27	0.0232711303259053
6.272	0.0289660793057272
6.274	0.0419889179709332
6.276	0.056789265236667
6.278	0.0545683709659665
6.28	0.0480633909777095
6.282	0.0306478156931832
6.284	0.00354361423094026
6.286	-0.0089963686865004
6.288	-0.00678499110333044
6.29	0.00750570504584594
6.292	0.0162556813094497
6.294	0.0229549070753984
6.296	0.0249024250093114
6.298	0.0170239315736492
6.3	1.07211971505511E-14
6.302	-0.0147739315736434
6.304	-0.0204024250093091
6.306	-0.00495490707540837
6.308	0.0107443186905438
6.31	0.0284942949541419
6.312	0.0292849911033295
6.314	0.0179963686865102
6.316	-0.00354361423093233
6.318	-0.0261478156931661
6.32	-0.0503133909777078
6.322	-0.0568183709659674
6.324	-0.0545392652366812
6.326	-0.0329889179709408
6.328	-0.0199660793057317
6.33	-0.0187711303259007
6.332	-0.0208291389425055
6.334	-0.0301772546508679
6.336	-0.0459627932669213
6.338	-0.0419579691392207
6.34	-0.0240171151375515
6.342	0.00291685759470685
6.344	0.0304409877939753
6.346	0.0509432789694705
6.348	0.0569487431019098
6.35	0.0515000000000027
6.352	0.0440935175499029
6.354	0.0376674008055283
6.356	0.0358204222977158
6.358	0.0386938221802692
6.36	0.0487671151375481
6.362	0.0520972893642213
6.364	0.0539513831752238
6.366	0.047316574875887
6.368	0.0390368782907075
6.37	0.0395211303259037
6.372	0.0404238186539204
6.374	0.0456282381959337
6.376	0.0625278551449748
6.378	0.0714576911909655
6.38	0.0773133909777105
6.382	0.0655084954681832
6.384	0.0585550243226331
6.386	0.0548643110884935
6.388	0.0537572695484766
6.39	0.0587557050458445
6.392	0.0722979419612522
6.394	0.071065586850402
6.396	0.0641638351010109
6.398	0.0406346113486499
6.4	0.013500000000001
6.402	-0.0136346113486399
6.404	-0.0281638351010095
6.406	-0.0260655868504059
6.408	-0.0182979419612571
6.41	-0.00475570504585393
6.412	0.00249273045152381
6.414	-0.00536431108848543
6.416	-0.0203050243226276
6.418	-0.0362584954681708
6.42	-0.0413133909777077
6.422	-0.0377076911909718
6.424	-0.013027855144976
6.426	0.0061217618040547
6.428	0.0180761813460737
6.43	0.0234788696740999
6.432	0.0172131217092953
6.434	-0.00456657487587431
6.436	-0.0224513831752213
6.438	-0.0205972893642231
6.44	-0.0172671151375533
6.442	0.00180617781971625
6.444	0.0226795777022721
6.446	0.0365825991944709
6.448	0.0346564824501
6.45	0.0227500000000067
6.452	0.0128012568980978
6.454	0.00980672103052956
6.456	0.0235590122060236
6.458	0.03308314240528
6.46	0.0555171151375481
6.462	0.0757079691392159
6.464	0.0819627932669246
6.466	0.0864272546508776
6.468	0.0815791389425158
6.47	0.0772711303259042
6.472	0.082966079305729
6.474	0.0824889179709283
6.476	0.0882892652366687
6.478	0.0860683709659641
6.48	0.077313390977708
6.482	0.0621478156931794
6.484	0.0417936142309361
6.486	0.0315036313134971
6.488	0.0247150088966682
6.49	0.0322557050458487
6.492	0.0432556813094441
6.494	0.0499549070754025
6.496	0.0541524250093107
6.498	0.0462739315736526
6.5	0.0337500000000064
6.502	0.0144760684263621
6.504	0.0155975749906894
6.506	0.026545092924595
6.508	0.0377443186905472
6.51	0.0464942949541447
6.512	0.0540349911033304
6.514	0.0449963686865077
6.516	0.0189563857690735
6.518	-0.00139781569317209
6.52	-0.0165633909777035
6.522	-0.027568370965972
6.524	-0.0207892652366795
6.526	-0.00373891797094697
6.528	0.0182839206942671
6.53	0.0127288696740983
6.532	0.00617086105749202
6.534	-0.01217725465087
6.536	-0.0189627932669196
6.538	-0.0127079691392195
6.54	0.000732884862444917
6.542	0.0254168575947113
6.544	0.0506909877939686
6.546	0.06219327896947
6.548	0.0749487431019076
6.55	0.0717500000000084
6.552	0.0620935175499056
6.554	0.0556674008055272
6.556	0.0538204222977169
6.558	0.0634438221802757
6.56	0.071267115137547
6.562	0.0768472893642202
6.564	0.074201383175225
6.566	0.0653165748758809
6.568	0.0525368782907112
6.57	0.0507711303259055
6.572	0.0561738186539222
6.574	0.065878238195929
6.576	0.0872778551449684
6.578	0.0939576911909672
6.58	0.0930633909777092
6.582	0.0880084954681797
6.584	0.0788050243226373
6.586	0.0751143110884898
6.588	0.0785072695484746
6.59	0.0790057050458473
6.592	0.0925479419612493
6.594	0.0958155868503967
6.596	0.0934138351010082
6.598	0.0698846113486508
6.6	0.0450000000000123
6.602	0.0178653886513566
6.604	0.00108616489898966
6.606	0.00318441314959464
6.608	0.00870205803873925
6.61	0.0222442949541488
6.612	0.0204927304515225
6.614	0.00813568891151218
6.616	-5.50243226221936E-05
6.618	-0.0160084954681685
6.62	-0.0143133909777089
6.622	-0.00845769119097398
6.624	0.00947214485501755
6.626	0.0398717618040598
6.628	0.0518261813460762
6.63	0.0572288696740988
6.632	0.0374631217093005
6.634	0.0179334251241208
6.636	0.0112986168247799
6.638	0.00640271063577572
6.64	0.00298288486244097
6.642	0.0130561778197115
6.644	0.029429577702275
6.646	0.0433325991944717
6.648	0.0346564824501027
6.65	0.0272500000000033
6.652	0.0263012568980955
6.654	0.0188067210305299
6.656	0.0303090122060169
6.658	0.0488331424052866
6.66	0.0735171151375422
6.662	0.0914579691392172
6.664	0.102212793266924
6.666	0.104427254650884
6.668	0.0950791389425133
6.67	0.090771130325906
6.672	0.0897160793057278
6.674	0.082488917970932
6.676	0.0905392652366722
6.678	0.0928183709659634
6.68	0.08181339097771
6.682	0.0598978156931757
6.684	0.0485436142309407
6.686	0.0337536313134946
6.688	0.0247150088966708
6.69	0.027755705045844
6.692	0.0410056813094475
6.694	0.0499549070753988
6.696	0.049652425009311
6.698	0.0440239315736514
6.7	0.0247500000000043
6.702	0.0077260684263566
6.704	0.00659757499068866
6.706	0.0152950929245971
6.708	0.0264943186905423
6.71	0.0374942949541474
6.712	0.0315349911033283
6.714	0.02474636868651
6.716	-0.00579361423093068
6.718	-0.0216478156931679
6.72	-0.0525633909777073
6.722	-0.0478183709659684
6.724	-0.0410392652366741
6.726	-0.026238917970942
6.728	-0.0154660793057318
6.73	-0.00977113032590275
6.732	-0.0208291389425039
6.734	-0.0346772546508748
6.736	-0.0392127932669182
6.738	-0.0307079691392194
6.74	-0.0195171151375491
6.742	0.023166857594709
6.744	0.0551909877939699
6.746	0.0689432789694717
6.748	0.072698743101906
6.75	0.071750000000005
6.752	0.0665935175499025
6.754	0.0556674008055271
6.756	0.0470704222977159
6.758	0.0701938221802778
6.76	0.0847671151375408
6.762	0.09259728936422
6.764	0.0877013831752249
6.766	0.0720665748758875
6.768	0.0570368782907087
6.77	0.0575211303259066
6.772	0.0561738186539247
6.774	0.0613782381959314
6.776	0.0895278551449703
6.778	0.0939576911909632
6.78	0.099813390977713
6.782	0.101508495468178
6.784	0.090055024322644
6.786	0.0818643110884924
6.788	0.0830072695484773
6.79	0.0925057050458426
6.792	0.101547941961252
6.794	0.0980655868503963
6.796	0.0911638351010092
6.798	0.0766346113486495
6.8	0.0472500000000055
6.802	0.0313653886513641
6.804	0.0190861648989912
6.806	0.0121844131495979
6.808	0.0177020580387343
6.81	0.028994294954146
6.812	0.0317427304515236
6.814	0.019385688911516
6.816	0.00669497567737197
6.818	-0.00700849546816528
6.82	-0.00756339097770792
6.822	0.000542308809029869
6.824	0.0252221448550231
6.826	0.0443717618040536
6.828	0.0585761813460734
6.83	0.0617288696740978
6.832	0.0622131217093045
6.834	0.0426834251241261
6.836	0.0225486168247799
6.838	0.0176527106357755
6.84	0.0277328848624467
6.842	0.0490561778197069
6.844	0.0721795777022761
6.846	0.0725825991944732
6.848	0.0639064824501011
6.85	0.0362500000000067
6.852	-0.000698743101899418
6.854	-0.0239432789694684
6.856	-0.0326909877939839
6.858	-0.0366668575947264
6.86	-0.0457328848624536
6.862	-0.0570420308607811
6.864	-0.0890372067330753
6.866	-0.140822745349113
6.868	-0.186170861057491
6.87	-0.210728869674095
6.872	-0.209533920694271
6.874	-0.187511082029072
6.876	-0.156960734763331
6.878	-0.123181629034033
6.88	-0.104936609022286
6.882	-0.075102184306817
6.884	-0.0437063857690653
6.886	0.00225363131349558
6.888	0.0404650088966718
6.89	0.0795057050458412
6.892	0.0995056813094517
6.894	0.110704907075402
6.896	0.103652425009312
6.898	0.0867739315736549
6.9	0.0720000000000068
6.902	0.0549760684263555
6.904	0.0380975749906904
6.906	0.0332950929245941
6.908	0.0467443186905451
6.91	0.0487442949541446
6.912	0.0517849911033293
6.914	0.0382463686865152
6.916	0.0189563857690633
6.918	-0.00364781569316953
6.92	-0.0188133909777065
6.922	-0.0230683709659682
6.924	-0.0117892652366809
6.926	0.00301108202906023
6.928	0.0115339206942653
6.93	0.0127288696740983
6.932	-0.0028291389425073
6.934	-0.0121772546508681
6.936	-0.016712793266918
6.938	-0.0194579691392237
6.94	0.00298288486245239
6.942	0.0321668575947113
6.944	0.0551909877939748
6.946	0.0666932789694691
6.948	0.0749487431019096
6.95	0.0605000000000017
6.952	0.0395935175499075
6.954	0.0399174008055286
6.956	0.0448204222977169
6.958	0.0521938221802708
6.96	0.0622671151375402
6.962	0.0723472893642215
6.964	0.0764513831752213
6.966	0.0653165748758825
6.968	0.0525368782907048
6.97	0.0395211303259055
6.972	0.031423818653922
6.974	0.0433782381959365
6.976	0.0602778551449674
6.978	0.0647076911909671
6.98	0.0818133909777095
6.982	0.0835084954681815
6.984	0.0720550243226381
6.986	0.0638643110884962
6.988	0.0582572695484784
6.99	0.0632557050458454
6.992	0.067797941961256
6.994	0.0710655868503996
6.996	0.064163835101007
6.998	0.0428846113486438
7	0.0247500000000077
7.002	-0.00238461134864158
7.004	-0.0214138351010051
7.006	-0.0215655868504073
7.008	-0.013797941961263
7.01	-0.0137557050458568
7.012	-0.0132572695484768
7.014	-0.0166143110884877
7.016	-0.0315550243226302
7.018	-0.0430084954681667
7.02	-0.041313390977708
7.022	-0.0354576911909706
7.024	-0.0197778551449835
7.026	-0.000628238195943993
7.028	0.0158261813460702
7.03	0.0167288696740996
7.032	-0.00528687829070038
7.034	-0.0315665748758673
7.036	-0.0449513831752167
7.038	-0.0498472893642256
7.04	-0.039767115137552
7.042	-0.029693822180291
7.044	-0.0155704222977271
7.046	-0.0106674008055279
7.048	-0.0170935175498954
7.05	-0.0289999999999966
7.052	-0.038948743101898
7.054	-0.0351932789694688
7.056	-0.0281909877939827
7.058	-0.0141668575947288
7.06	0.00601711513753863
7.062	0.0284579691392223
7.064	0.0324627932669212
7.066	0.0279272546508823
7.068	0.0140791389425126
7.07	-0.00597886967409605
7.072	-0.011533920694274
7.074	-0.00301108202906943
7.076	0.0117892652366662
7.078	0.0073183709659624
7.08	0.000813390977709792
7.082	-0.012102184306814
7.084	-0.0302063857690576
7.086	-0.0539963686865056
7.088	-0.0607849911033286
7.09	-0.064494294954156
7.092	-0.0534943186905526
7.094	-0.0445450929245971
7.096	-0.0470975749906898
7.098	-0.0549760684263506
7.1	-0.0607499999999885
7.102	-0.071023931573639
7.104	-0.0766524250093085
7.106	-0.0657049070754109
7.108	-0.0522556813094592
7.11	-0.0502557050458527
7.112	-0.0494650088966711
7.114	-0.0585036313134887
7.116	-0.075543614230929
7.118	-0.0981478156931755
7.12	-0.108813390977707
7.122	-0.101818370965969
7.124	-0.0927892652366839
7.126	-0.0779889179709433
7.128	-0.0672160793057323
7.13	-0.0637711303258999
7.132	-0.0680791389425042
7.134	-0.0684272546508702
7.136	-0.0774627932669215
7.138	-0.0667079691392246
7.14	-0.0442671151375554
7.142	-0.00383314240528208
7.144	0.023690987793974
7.146	0.0396932789694708
7.148	0.041198743101911
7.15	0.0335000000000074
7.152	0.0238435175499045
7.154	0.0196674008055259
7.156	0.0200704222977138
7.158	0.0409438221802772
7.16	0.057767115137546
7.162	0.0745972893642203
7.164	0.0742013831752247
7.166	0.0585665748758803
7.168	0.0435368782907102
7.17	0.0282711303259045
7.172	0.0336738186539188
7.174	0.0456282381959331
7.176	0.0602778551449729
7.178	0.0849576911909627
7.18	0.0975633909777095
7.182	0.10375849546818
7.184	0.085555024322636
7.186	0.0796143110884952
7.188	0.078507269548478
7.19	0.0790057050458481
7.192	0.0835479419612497
7.194	0.0868155868504001
7.196	0.0754138351010108
7.198	0.0518846113486491
7.2	0.0427500000000054
7.202	0.0201153886513637
7.204	0.0145861648989944
7.206	0.00543441314959326
7.208	0.010952058038741
7.21	0.0132442949541459
7.212	0.0182427304515228
7.214	0.0148856889115113
7.216	-5.50243226235328E-05
7.218	-0.0115084954681681
7.22	-0.0120633909777087
7.222	-0.00170769119097065
7.224	0.0117221448550221
7.226	0.0353717618040526
7.228	0.0450761813460727
7.23	0.0414788696740985
7.232	0.0284631217092971
7.234	0.0111834251241278
7.236	-0.00220138317522035
7.238	0.00190271063577759
7.24	0.00973288486244638
7.242	0.0243061778197154
7.244	0.0429295777022719
7.246	0.0478325991944716
7.248	0.0414064824501016
7.25	0.0227500000000091
7.252	0.015051256898099
7.254	0.0143067210305264
7.256	0.0190590122060223
7.258	0.0533331424052779
7.26	0.0780171151375446
7.262	0.0937079691392137
7.264	0.106712793266926
7.266	0.10442725465088
7.268	0.0860791389425181
7.27	0.070521130325905
7.272	0.0717160793057284
7.274	0.0802389179709271
7.276	0.0905392652366678
7.278	0.101818370965963
7.28	0.102063390977711
7.282	0.0846478156931844
7.284	0.06204361423094
7.286	0.0472536313134995
7.288	0.0382150088966693
7.29	0.0322557050458467
7.292	0.0432556813094411
7.294	0.0454549070753999
7.296	0.0496524250093113
7.298	0.0462739315736549
7.3	0.0427500000000094
7.302	0.0369760684263644
7.304	0.0268475749906912
7.306	0.0310450929245924
7.308	0.0399943186905449
7.31	0.0509942949541446
7.312	0.0472849911033282
7.314	0.0359963686865101
7.316	0.00545638576907744
7.318	-0.0103978156931681
7.32	-0.0188133909777113
7.322	-0.0230683709659692
7.324	-0.00953926523667852
7.326	0.00301108202905293
7.328	0.00478392069426878
7.33	0.00372886967409904
7.332	-0.00732913894250663
7.334	-0.0256772546508673
7.336	-0.0324627932669164
7.338	-0.0239579691392212
7.34	0.0074828848624433
7.342	0.0434168575947092
7.344	0.0574409877939752
7.346	0.0711932789694704
7.348	0.0749487431019095
7.35	0.0582500000000108
7.352	0.0440935175499028
7.354	0.0399174008055274
7.356	0.0425704222977185
7.358	0.0611938221802726
7.36	0.0802671151375399
7.362	0.0925972893642192
7.364	0.0899513831752259
7.366	0.0743165748758857
7.368	0.0525368782907063
7.37	0.0350211303259062
7.372	0.0426738186539213
7.374	0.0568782381959269
7.376	0.0670278551449749
7.378	0.0939576911909666
7.38	0.10881339097771
7.382	0.103758495468183
7.384	0.0923050243226389
7.386	0.0841143110884915
7.388	0.078507269548476
7.39	0.0745057050458453
7.392	0.0857979419612523
7.394	0.0890655868503976
7.396	0.0754138351010117
7.398	0.0676346113486566
7.4	0.0494999999999986
7.402	0.031365388651358
7.404	0.0123361648989917
7.406	-0.00131558685040717
7.408	0.0109520580387347
7.41	0.0177442949541487
7.412	0.0182427304515222
7.414	0.00588568891151385
7.416	0.00219497567737063
7.418	-0.00925849546816582
7.42	-0.00756339097770767
7.422	0.00729230880902541
7.424	0.0184721448550239
7.426	0.0398717618040549
7.428	0.0518261813460738
7.43	0.0504788696740996
7.432	0.0397131217093011
7.434	0.0201834251241229
7.436	0.00904861682478082
7.438	0.00640271063577741
7.44	0.0187328848624476
7.442	0.0310561778197085
7.444	0.045179577702273
7.446	0.0478325991944715
7.448	0.0369064824500977
7.45	0.0227500000000057
7.452	0.0150512568980974
7.454	0.0143067210305281
7.456	0.0325590122060178
7.458	0.0578331424052802
7.46	0.0870171151375387
7.462	0.104957969139217
7.464	0.122462793266926
7.466	0.115677254650887
7.468	0.0995791389425142
7.47	0.0930211303259068
7.472	0.0897160793057295
7.474	0.0959889179709293
7.476	0.10178926523667
7.478	0.115318370965962
7.48	0.11556339097771
7.482	0.0981478156931784
7.484	0.0687936142309428
7.486	0.0540036313134957
7.488	0.0359650088966703
7.49	0.0390057050458421
7.492	0.0455056813094453
7.494	0.0567049070753975
7.496	0.0676524250093125
7.498	0.0597739315736517
7.5	0.0472500000000028
7.502	0.039226068426359
7.504	0.0425975749906915
7.506	0.0512950929245958
7.508	0.0489943186905401
7.51	0.0532442949541473
7.512	0.0607849911033292
7.514	0.0449963686865111
7.516	0.0257063857690714
7.518	0.00985218430683388
7.52	-0.00531339097770698
7.522	-0.00956837096596985
7.524	-0.000539265236676842
7.526	0.0142610820290552
7.528	0.0160339206942669
7.53	0.012728869674098
7.532	-0.000579138942502527
7.534	-0.00992725465087212
7.536	-0.0099627932669165
7.538	-0.00595796913921953
7.54	0.0119828848624448
7.542	0.0344168575947025
7.544	0.0686909877939686
7.546	0.0734432789694721
7.548	0.0636987431019056
7.55	0.0560000000000074
7.552	0.0373435175499055
7.554	0.0354174008055263
7.556	0.0403204222977138
7.558	0.0589438221802747
7.56	0.0780171151375365
7.562	0.0858472893642207
7.564	0.0854513831752259
7.566	0.0698165748758896
7.568	0.0412868782907107
7.57	0.0215211303259052
7.572	0.0246738186539224
7.574	0.0366282381959293
7.576	0.0580278551449685
7.578	0.0804576911909704
7.58	0.0885633909777143
7.582	0.0767584954681776
7.584	0.0698050243226431
7.586	0.0548643110884953
7.588	0.0537572695484771
7.59	0.0497557050458407
7.592	0.0565479419612494
7.594	0.0598155868503982
7.596	0.061913835101009
7.598	0.0518846113486532
7.6	0.0292500000000076
7.602	0.00436538865135667
7.604	-0.00791383510100675
7.606	-0.0125655868504039
7.608	-0.00704794196126826
7.61	0.00199429495414404
7.612	-0.00425726954847812
7.614	0.00138568891151501
7.616	0.00219497567737483
7.618	-0.00925849546816722
7.62	-0.00756339097770596
7.622	0.000542308809029259
7.624	0.0252221448550175
7.626	0.03312176180406
7.628	0.0450761813460725
7.63	0.0527288696740985
7.632	0.0397131217093056
7.634	0.0224334251241295
7.636	0.0112986168247808
7.638	0.0109027106357746
7.64	0.0254828848624442
7.642	0.0400561778197149
7.644	0.0474295777022777
7.646	0.052332599194473
7.648	0.0436564824501004
7.65	0.0317500000000023
7.652	0.0173012568981025
7.654	0.0165567210305271
7.656	0.0348090122060111
7.658	0.0645831424052778
7.66	0.0892671151375447
7.662	0.107207969139219
7.664	0.126962793266926
7.666	0.113427254650882
7.668	0.0995791389425117
7.67	0.090771130325905
7.672	0.100966079305728
7.674	0.102738917970934
7.676	0.108539265236667
7.678	0.113068370965965
7.68	0.108813390977714
7.682	0.0981478156931725
7.684	0.0777936142309404
7.686	0.0585036313134994
7.688	0.0449650088966712
7.69	0.0390057050458448
7.692	0.0522556813094494
7.694	0.0634549070754009
7.696	0.0789024250093091
7.698	0.0732739315736506
7.7	0.0675000000000098
7.702	0.0594760684263578
7.704	0.0538475749906932
7.706	0.0512950929245966
7.708	0.0647443186905428
7.71	0.0847442949541427
7.712	0.0787849911033288
7.714	0.06299636868651
7.716	0.0347063857690691
7.718	-0.00364781569316774
7.72	-0.0390633909777055
7.722	-0.0635683709659706
7.724	-0.0725392652366836
7.726	-0.0914889179709398
7.728	-0.109966079305735
7.73	-0.147021130325903
7.732	-0.200829138942505
7.734	-0.241677254650865
7.736	-0.284462793266916
7.738	-0.27145796913922
7.74	-0.244517115137549
7.742	-0.188333142405291
7.744	-0.145059012206026
7.746	-0.102056721030529
7.748	-0.0803012568980907
7.75	-0.0587499999999959
7.752	-0.0279064824500909
7.754	0.0174174008055262
7.756	0.0718204222977186
7.758	0.121943822180272
7.76	0.136517115137542
7.762	0.13309728936422
7.764	0.116951383175222
7.766	0.0900665748758847
7.768	0.0682868782907068
7.77	0.0485211303259056
7.772	0.044923818653921
7.774	0.0546282381959344
7.776	0.0692778551449655
7.778	0.0939576911909665
7.78	0.104313390977711
7.782	0.108258495468184
7.784	0.094555024322641
7.786	0.0841143110884979
7.788	0.0762572695484767
7.79	0.0745057050458434
7.792	0.0767979419612554
7.794	0.0800655868503978
7.796	0.0799138351010069
7.798	0.0698846113486518
7.8	0.0540000000000144
7.802	0.0313653886513642
7.804	0.00783616489899054
7.806	0.00768441314959088
7.808	0.0109520580387344
7.81	0.0132442949541413
7.812	0.0137427304515229
7.814	0.00813568891151396
7.816	0.00444497567737265
7.818	-0.007008495468164
7.82	-0.0165633909777067
7.822	-0.00845769119097122
7.824	0.00272214485501456
7.826	0.0241217618040538
7.828	0.0383261813460736
7.83	0.0392288696741003
7.832	0.0217131217093031
7.834	0.0111834251241348
7.836	4.86168247771368E-05
7.838	-0.00709728936422657
7.84	0.000732884862445403
7.842	0.0220561778197083
7.844	0.029429577702273
7.846	0.0253325991944719
7.848	0.014406482450104
7.85	0.00925000000000581
7.852	0.0015512568980995
7.854	0.000806721030529343
7.856	0.00330901220601605
7.858	0.0218331424052691
7.86	0.0420171151375462
7.862	0.0532079691392179
7.864	0.0527127932669229
7.866	0.036927254650885
7.868	0.0275791389425173
7.87	0.00527113032590399
7.872	0.00196607930572618
7.874	0.0104889179709306
7.876	0.0185392652366682
7.878	0.0208183709659609
7.88	0.0255633909777101
7.882	0.00364781569318776
7.884	-0.0279563857690656
7.886	-0.0472463686865045
7.888	-0.0652849911033292
7.89	-0.068994294954158
7.892	-0.0624943186905549
7.894	-0.0422950929245983
7.896	-0.0425975749906892
7.898	-0.045976068426346
7.9	-0.0517499999999923
7.902	-0.0732739315736476
7.904	-0.0834024250093093
7.906	-0.0949549070754122
7.908	-0.088255681309453
7.91	-0.0705057050458546
7.912	-0.0719650088966717
7.914	-0.0832536313134849
7.916	-0.0980436142309282
7.918	-0.122897815693174
7.92	-0.138063390977706
7.922	-0.14681837096597
7.924	-0.146789265236678
7.926	-0.145488917970938
7.928	-0.134716079305733
7.93	-0.138021130325899
7.932	-0.158079138942509
7.934	-0.16967725465087
7.936	-0.17196279326692
7.938	-0.170207969139225
7.94	-0.145517115137551
7.942	-0.127583142405286
7.944	-0.104559012206031
7.946	-0.102056721030532
7.948	-0.0960512568980923
7.95	-0.117249999999999
7.952	-0.126906482450094
7.954	-0.126582599194474
7.956	-0.11942957770228
7.958	-0.0985561778197258
7.96	-0.0884828848624566
7.962	-0.0851527106357806
7.964	-0.0922986168247744
7.966	-0.110183425124118
7.968	-0.136463121709288
7.97	-0.131478869674096
7.972	-0.141826181346076
7.974	-0.120871761804063
7.976	-0.0994721448550326
7.978	-0.0747923088090379
7.98	-0.0599366090222882
7.982	-0.0694915045318172
7.984	-0.0764449756773612
7.986	-0.0913856889115058
7.988	-0.0947427304515239
7.99	-0.0874942949541539
7.992	-0.0784520580387509
7.994	-0.0616844131496017
7.996	-0.0550861648989922
7.998	-0.0763653886513539
8	-0.0944999999999925
8.002	-0.105884611348648
8.004	-0.120413835101006
8.006	-0.122815586850406
8.008	-0.117297941961269
8.01	-0.115005705045856
8.012	-0.0987572695484777
8.014	-0.095364311088482
8.016	-0.0968050243226244
8.018	-0.103758495468174
8.02	-0.102063390977707
8.022	-0.100707691190967
8.024	-0.0827778551449919
8.026	-0.0613782381959496
8.028	-0.0606738186539239
8.03	-0.0485211303258986
8.032	-0.0547868782907009
8.034	-0.0608165748758777
8.036	-0.0674513831752195
8.038	-0.0700972893642234
8.04	-0.064517115137558
8.042	-0.0499438221802896
8.044	-0.0448204222977259
8.046	-0.0399174008055282
8.048	-0.0418435175498977
8.05	-0.0492499999999953
8.052	-0.0569487431018991
8.054	-0.053193278969469
8.056	-0.0326909877939906
8.058	-0.00516685759472858
8.06	0.0195171151375449
8.062	0.0442079691392136
8.064	0.0437127932669265
8.066	0.0324272546508753
8.068	0.0230791389425204
8.07	0.00752113032590294
8.072	0.00871607930572432
8.074	0.0262389179709245
8.076	0.0365392652366736
8.078	0.0455683709659611
8.08	0.0435633909777109
8.082	0.0238978156931729
8.084	-0.0054563857690579
8.086	-0.0247463686865069
8.088	-0.0427849911033282
8.09	-0.0442442949541553
8.092	-0.0219943186905507
8.094	-0.0062950929246013
8.096	0.000152425009311955
8.098	-0.00097606842634935
8.1	-0.0179999999999921
8.102	-0.0215239315736421
8.104	-0.0361524250093091
8.106	-0.0364549070754088
8.108	-0.0252556813094593
8.11	-0.0187557050458574
8.112	-0.00896500889667234
8.114	-0.0135036313134963
8.116	-0.0327936142309205
8.118	-0.0508978156931753
8.12	-0.0683133909777022
8.122	-0.0770683709659668
8.124	-0.0770392652366766
8.126	-0.0712389179709497
8.128	-0.0649660793057324
8.13	-0.0682711303259023
8.132	-0.0680791389425057
8.134	-0.0751772546508723
8.136	-0.0729627932669199
8.138	-0.0622079691392213
8.14	-0.0420171151375491
8.142	-0.0150831424052949
8.144	0.00569098779397395
8.146	0.0126932789694751
8.148	0.0096987431019091
8.15	-0.00249999999999585
8.152	-0.00765648245009346
8.154	-0.00508259919447275
8.156	0.00207042229771492
8.158	0.0206938221802696
8.16	0.0307671151375437
8.162	0.0363472893642199
8.164	0.022451383175229
8.166	0.00681657487587752
8.168	-0.0127131217092833
8.17	-0.0167288696740958
8.172	-0.0135761813460758
8.174	0.00962823819592204
8.176	0.031027855144973
8.178	0.0512076911909694
8.18	0.0615633909777117
8.182	0.0542584954681761
8.184	0.0338050243226442
8.186	0.0233643110884946
8.188	0.0222572695484772
8.19	0.0205057050458433
8.192	0.0340479419612512
8.194	0.0440655868503947
8.196	0.0484138351010138
8.198	0.0203846113486471
8.2	-0.00224999999998342
8.202	-0.0226346113486405
8.204	-0.0439138351010128
8.206	-0.0508155868504042
8.208	-0.0497979419612659
8.21	-0.0317557050458478
8.212	-0.0312572695484781
8.214	-0.0233643110884908
8.216	-0.0225550243226214
8.218	-0.0317584954681702
8.22	-0.0345633909777092
8.222	-0.0377076911909752
8.224	-0.028777855144978
8.226	-0.0141282381959357
8.228	-0.00667381865392753
8.23	0.0144788696740975
8.232	-0.00753687829069643
8.234	-0.0180665748758723
8.236	-0.0314513831752217
8.238	-0.0273472893642219
8.24	-0.0240171151375568
8.242	-0.00494382218028551
8.244	0.00467957770227092
8.246	-0.00166740080552709
8.248	-0.00809351754989268
8.25	-0.0109999999999941
8.252	-0.0141987431019007
8.254	-0.00819327896947158
8.256	0.00105901220601646
8.258	0.0308331424052627
8.26	0.062267115137539
8.262	0.0622079691392187
8.264	0.0594627932669264
8.266	0.0661772546508781
8.268	0.0545791389425109
8.27	0.0322711303259075
8.272	0.0559660793057278
8.274	0.0667389179709207
8.276	0.0860392652366706
8.278	0.0860683709659638
8.28	0.0728133909777152
8.282	0.0621478156931792
8.284	0.0327936142309361
8.286	0.0202536313134982
8.288	0.00671500889666969
8.29	0.00525570504584194
8.292	0.016255681309443
8.294	0.0364549070754021
8.296	0.0384024250093144
8.298	0.0395239315736541
8.3	0.0360000000000081
8.302	0.00772606842636131
8.304	-0.000152425009308631
8.306	0.00629509292459034
8.308	0.0152443186905384
8.31	0.0217442949541508
8.312	0.0405349911033286
8.314	0.0314963686865074
8.316	0.00770638576906226
8.318	-0.00814781569315904
8.32	-0.0233133909777095
8.322	-0.0320683709659705
8.324	-0.0342892652366796
8.326	-0.0239889179709387
8.328	-0.0132160793057347
8.33	-0.016521130325902
8.332	-0.0163291389425058
8.334	-0.0211772546508694
8.336	-0.0257127932669182
8.338	-0.0149579691392239
8.34	0.0074828848624413
8.342	0.0254168575947138
8.344	0.0439409877939673
8.346	0.0576932789694724
8.348	0.056948743101912
8.35	0.0537500000000076
8.352	0.0440935175499057
8.354	0.0421674008055272
8.356	0.0448204222977118
8.358	0.0679438221802827
8.36	0.0735171151375403
8.362	0.0768472893642198
8.364	0.0697013831752219
8.366	0.0473165748758829
8.368	0.0345368782907057
8.37	0.0350211303259081
8.372	0.042673818653921
8.374	0.0636282381959384
8.376	0.0850278551449665
8.378	0.100707691190965
8.38	0.102063390977712
8.382	0.0857584954681793
8.384	0.0698050243226409
8.386	0.0548643110884972
8.388	0.0492572695484768
8.39	0.0565057050458442
8.392	0.0745479419612482
8.394	0.0755655868503985
8.396	0.0686638351010089
8.398	0.0541346113486546
8.4	0.0247500000000074
8.402	-0.00688461134862866
8.404	-0.0214138351010091
8.406	-0.0283155868504026
8.408	-0.0205479419612688
8.41	-0.00925570504585056
8.412	0.00474273045152306
8.414	0.00588568891151181
8.416	-0.00455502432262991
8.418	-0.0227584954681589
8.42	-0.0458133909777092
8.422	-0.0377076911909679
8.424	-0.0220278551449845
8.426	-0.00287823819594192
8.428	-0.00217381865392459
8.43	0.00547886967409858
8.432	0.0014631217093006
8.434	-0.00681657487586696
8.436	-0.0179513831752183
8.438	-0.0205972893642214
8.44	-0.0172671151375602
8.442	-0.0116938221802901
8.444	0.00242957770227411
8.446	0.00733259919447283
8.448	0.000906482450105116
8.45	-0.0177499999999907
8.452	-0.0119487431018993
8.454	-0.00594327896946826
8.456	0.0168090122060098
8.458	0.0555831424052847
8.46	0.0735171151375542
8.462	0.0892079691392144
8.464	0.0954627932669231
8.466	0.0909272546508897
8.468	0.081579138942514
8.47	0.0795211303259044
8.472	0.0852160793057259
8.474	0.100488917970932
8.476	0.113039265236668
8.478	0.124318370965964
8.48	0.115563390977711
8.482	0.0868978156931866
8.484	0.0687936142309438
8.486	0.0427536313134929
8.488	0.0359650088966706
8.49	0.0345057050458428
8.492	0.0477556813094451
8.494	0.0679549070753991
8.496	0.0766524250093134
8.498	0.0732739315736575
8.5	0.0540000000000129
8.502	0.0392260684263513
8.504	0.0290975749906879
8.506	0.0332950929245974
8.508	0.0444943186905341
8.51	0.062244294954148
8.512	0.0742849911033283
8.514	0.0629963686865174
8.516	0.0414563857690724
8.518	0.0256021843068217
8.52	0.00143660902229483
8.522	-0.0140683709659677
8.524	-0.00953926523668251
8.526	0.00976108202905769
8.528	0.0115339206942667
8.53	0.0104788696740991
8.532	0.0106708610574973
8.534	0.00807274534912967
8.536	0.00353720673308168
8.538	0.0187920308607811
8.54	0.0232328848624336
8.542	0.0456668575947051
8.544	0.0709409877939744
8.546	0.0936932789694698
8.548	0.0816987431019134
8.55	0.0852499999999974
8.552	0.0823435175499085
8.554	0.0849174008055277
8.556	0.0830704222977086
8.558	0.110693822180278
8.56	0.118517115137546
8.562	0.103847289364218
8.564	0.0764513831752253
8.566	0.0428165748758792
8.568	0.00303687829071021
8.57	-0.0234788696740951
8.572	-0.0293261813460822
8.574	-0.0376217618040678
8.576	-0.0499721448550281
8.578	-0.0747923088090385
8.58	-0.118436609022288
8.582	-0.175241504531823
8.584	-0.193444975677355
8.586	-0.199385688911505
8.588	-0.184742730451524
8.59	-0.141494294954159
8.592	-0.107702058038752
8.594	-0.0661844131496019
8.596	-0.0280861648989874
8.598	-0.00211538865135992
8.6	0.0270000000000165
8.602	0.0358653886513525
8.604	0.0505861648989946
8.606	0.052684413149597
8.608	0.0514520580387409
8.61	0.0627442949541466
8.612	0.0609927304515227
8.614	0.0441356889115093
8.616	0.0246949756773767
8.618	0.00649150453183071
8.62	0.00143660902229074
8.622	-0.00170769119097183
8.624	0.00497214485502094
8.626	0.0263717618040519
8.628	0.0450761813460722
8.63	0.0527288696740982
8.632	0.0442131217093051
8.634	0.0291834251241267
8.636	0.0157986168247852
8.638	0.00865271063577844
8.64	0.0142328848624428
8.642	0.0130561778197053
8.644	0.042929577702271
8.646	0.0388325991944734
8.648	0.0256564824501078
8.65	0.0294999999999991
8.652	0.0375512568981021
8.654	0.0300567210305291
8.656	0.0460590122060227
8.658	0.062333142405276
8.66	0.0847671151375464
8.662	0.0892079691392238
8.664	0.0887127932669231
8.666	0.0864272546508801
8.668	0.0815791389425172
8.67	0.0817711303259054
8.672	0.0852160793057274
8.674	0.0914889179709279
8.676	0.110789265236666
8.678	0.113068370965963
8.68	0.095313390977715
8.682	0.0801478156931796
8.684	0.0462936142309514
8.686	0.0157536313134981
8.688	0.0179650088966686
8.69	0.01200570504584
8.692	0.0387556813094408
8.694	0.0432049070754089
8.696	0.0631524250093136
8.698	0.0597739315736475
8.7	0.0427500000000176
8.702	0.0234760684263547
8.704	0.01334757499069
8.706	0.0130450929245945
8.708	0.0332443186905467
8.71	0.0442442949541489
8.712	0.0450349911033292
8.714	0.0269963686865072
8.716	0.0257063857690801
8.718	-0.00589781569317093
8.72	-0.0323133909777096
8.722	-0.0478183709659676
8.724	-0.045539265236681
8.726	-0.0352389179709399
8.728	-0.0244660793057351
8.73	-0.0187711303259012
8.732	-0.0275791389424995
8.734	-0.0346772546508675
8.736	-0.039212793266913
8.738	-0.0329579691392265
8.74	-0.0195171151375586
8.742	-0.00383314240527728
8.744	0.0124409877939677
8.746	0.0239432789694732
8.748	0.0276987431019148
8.75	0.0267500000000009
8.752	0.019343517549901
8.754	0.0174174008055276
8.756	0.0178204222977176
8.758	0.0229438221802645
8.76	0.0397671151375427
8.762	0.0318472893642201
8.764	0.0224513831752287
8.766	6.65748758845348E-05
8.768	-0.0172131217092928
8.77	-0.021228869674094
8.772	-0.0158261813460792
8.774	0.00287823819592602
8.776	0.0220278551449655
8.778	0.0354576911909693
8.78	0.032313390977712
8.782	0.0227584954681802
8.784	0.00230502432264167
8.786	-0.0283856889115027
8.788	-0.0182427304515242
8.79	-0.00199429495416135
8.792	0.000297941961244545
8.794	0.00581558685040234
8.796	-0.00108616489898365
8.798	-0.0178653886513524
8.8	-0.0495000000000017
8.802	-0.07888461134864
8.804	-0.100163835101011
8.806	-0.113815586850401
8.808	-0.101547941961262
8.81	-0.0767557050458525
8.812	-0.0717572695484777
8.814	-0.0818643110884881
8.816	-0.0833050243226267
8.818	-0.103758495468166
8.82	-0.113313390977704
8.822	-0.100707691190976
8.824	-0.0917778551449855
8.826	-0.0681282381959429
8.828	-0.049423818653931
8.83	-0.0395211303259007
8.832	-0.0457868782906979
8.834	-0.054066574875868
8.836	-0.0629513831752171
8.838	-0.0678472893642251
8.84	-0.0577671151375606
8.842	-0.0656938221802816
8.844	-0.0313204222977322
8.846	-0.0241674008055267
8.848	-0.0238435175498996
8.85	-0.0177499999999974
8.852	-0.0209487431019024
8.854	-0.0216932789694735
8.856	0.00330901220601602
8.858	0.0285831424052847
8.86	0.048767115137535
8.862	0.0712079691392195
8.864	0.0819627932669247
8.866	0.0729272546508829
8.868	0.0725791389425157
8.87	0.0840211303259065
8.872	0.0874660793057256
8.874	0.0959889179709303
8.876	0.110789265236663
8.878	0.106318370965963
8.88	0.097563390977706
8.882	0.068897815693187
8.884	0.0552936142309442
8.886	0.0382536313135032
8.888	0.0404650088966695
8.89	0.0525057050458483
8.892	0.0635056813094366
8.894	0.0657049070754059
8.896	0.074402425009312
8.898	0.0687739315736509
8.9	0.0540000000000042
8.902	0.0369760684263582
8.904	0.0245975749906903
8.906	0.0310450929245957
8.908	0.048994318690541
8.91	0.0644942949541461
8.912	0.0742849911033257
8.914	0.0674963686865124
8.916	0.0459563857690728
8.918	0.0143521843068364
8.92	-0.00531339097770537
8.922	-0.016318370965973
8.924	-0.0117892652366839
8.926	-0.00373891797094355
8.928	0.0115339206942663
8.93	0.0149788696740998
8.932	0.015170861057499
8.934	0.00807274534913531
8.936	0.00353720673308693
8.938	0.00304203086078032
8.94	0.0119828848624337
8.942	0.038916857594714
8.944	0.0574409877939806
8.946	0.0734432789694705
8.948	0.0726987431019089
8.95	0.0672500000000043
8.952	0.0598435175499038
8.954	0.062417400805526
8.956	0.0740704222977144
8.958	0.0791938221802777
8.96	0.0870171151375421
8.962	0.10159728936422
8.964	0.0832013831752228
8.966	0.0720665748758899
8.968	0.0615368782907117
8.97	0.0552711303259056
8.972	0.0584238186539176
8.974	0.0726282381959312
8.976	0.0895278551449709
8.978	0.107457691190965
8.98	0.106563390977712
8.982	0.0947584954681834
8.984	0.0810550243226459
8.986	0.07286431108849
8.988	0.0740072695484754
8.99	0.0812557050458469
8.992	0.0857979419612543
8.994	0.100315586850402
8.996	0.100163835101007
8.998	0.0811346113486552
9	0.0472500000000073
9.002	0.0223653886513521
9.004	0.0010861648989929
9.006	0.000934413149595026
9.008	0.00870205803873496
9.01	0.0132442949541447
9.012	0.0317427304515217
9.014	0.0306356889115145
9.016	0.0156949756773776
9.018	-0.00250849546816843
9.02	-0.00756339097770443
9.022	-0.00845769119097235
9.024	0.00497214485500804
9.026	0.0196217618040509
9.028	0.036076181346072
9.03	0.0437288696741004
9.032	0.0464631217093066
9.034	0.0314334251241195
9.036	0.0225486168247863
9.038	0.0109027106357728
9.04	0.018732884862436
9.042	0.0220561778197138
9.044	0.0294295777022768
9.046	0.0365825991944732
9.048	0.0391564824501031
9.05	0.0340000000000015
9.052	0.026301256898099
9.054	0.0278067210305304
9.056	0.0415590122060094
9.058	0.060083142405276
9.06	0.0847671151375429
9.062	0.0982079691392153
9.064	0.104462793266925
9.066	0.104427254650885
9.068	0.0995791389425188
9.07	0.0952711303259062
9.072	0.0942160793057237
9.074	0.107238917970927
9.076	0.119789265236664
9.078	0.119818370965963
9.08	0.10881339097771
9.082	0.086897815693174
9.084	0.0597936142309519
9.086	0.054003631313493
9.088	0.0472150088966705
9.09	0.0525057050458455
9.092	0.0635056813094477
9.094	0.079204907075403
9.096	0.0744024250093122
9.098	0.0642739315736519
9.1	0.0585000000000089
9.102	0.0392260684263548
9.104	0.0335975749906905
9.106	0.0355450929245928
9.108	0.0534943186905445
9.11	0.0644942949541434
9.112	0.0720349911033267
9.114	0.0607463686865071
9.116	0.0392063857690805
9.118	0.0166021843068295
9.12	0.00143660902229893
9.122	-0.00731837096597285
9.124	-0.0050392652366824
9.126	0.0142610820290528
9.128	0.0227839206942645
9.13	0.0239788696740967
9.132	0.0196708610575021
9.134	0.0170727453491256
9.136	0.00353720673308685
9.138	0.00529203086077604
9.14	0.0187328848624534
9.142	0.0411668575947053
9.144	0.0619409877939739
9.146	0.0846932789694744
9.148	0.0906987431019103
9.15	0.0830000000000032
9.152	0.0778435175499065
9.154	0.0759174008055259
9.156	0.0718204222977176
9.158	0.0791938221802731
9.16	0.0847671151375387
9.162	0.0858472893642204
9.164	0.0809513831752262
9.166	0.0810665748758862
9.168	0.0637868782907162
9.17	0.0620211303259067
9.172	0.0696738186539205
9.174	0.0838782381959251
9.176	0.0940278551449644
9.178	0.105207691190973
9.18	0.115563390977712
9.182	0.0992584954681793
9.184	0.0968050243226501
9.186	0.0931143110884926
9.188	0.0920072695484766
9.19	0.0925057050458441
9.192	0.103797941961251
9.194	0.1183155868504
9.196	0.0979138351010109
9.198	0.0833846113486472
9.2	0.0630000000000164
9.202	0.0358653886513596
9.204	0.0213361648989924
9.206	0.0211844131495946
9.208	0.0199520580387356
9.21	0.0334942949541456
9.212	0.0407427304515213
9.214	0.0373856889115147
9.216	0.0179449756773817
9.218	0.00199150453183478
9.22	-0.00756339097770412
9.222	-0.00620769119097628
9.224	0.0139721448550171
9.226	0.0308717618040643
9.228	0.0473261813460688
9.23	0.0482288696740972
9.232	0.044213121709311
9.234	0.0269334251241249
9.236	0.0180486168247792
9.238	0.00415271063577266
9.24	0.0142328848624464
9.242	0.0153061778197136
9.244	0.0361795777022736
9.246	0.0388325991944743
9.248	0.0346564824501059
9.25	0.0227500000000049
9.252	0.0105512568980996
9.254	0.0120567210305278
9.256	0.0235590122060201
9.258	0.0375831424052673
9.26	0.0622671151375351
9.262	0.0734579691392203
9.264	0.0864627932669246
9.266	0.0864272546508875
9.268	0.0725791389425173
9.27	0.0705211303259072
9.272	0.0717160793057252
9.274	0.077988917970923
9.276	0.0927892652366611
9.278	0.101818370965966
9.28	0.0885633909777146
9.282	0.0801478156931813
9.284	0.0620436142309321
9.286	0.0427536313134982
9.288	0.0404650088966701
9.29	0.0480057050458427
9.292	0.0657556813094435
9.294	0.0724549070754042
9.296	0.0744024250093125
9.298	0.0687739315736553
9.3	0.0607500000000046
9.302	0.0437260684263582
9.304	0.0448475749906939
9.306	0.0445450929245898
9.308	0.0557443186905403
9.31	0.0734942949541442
9.312	0.0787849911033291
9.314	0.0629963686865122
9.316	0.0459563857690696
9.318	0.0233521843068368
9.32	-0.00531339097770555
9.322	-0.00506837096597269
9.324	0.00621073476331464
9.326	0.0187610820290607
9.328	0.0250339206942626
9.33	0.0329788696740977
9.332	0.0286708610574926
9.334	0.0103227453491285
9.336	0.00128720673308361
9.338	0.00529203086077176
9.34	0.0232328848624457
9.342	0.052416857594714
9.344	0.0754409877939673
9.346	0.0936932789694718
9.348	0.101948743101911
9.35	0.0920000000000067
9.352	0.0935935175499057
9.354	0.0736674008055259
9.356	0.0718204222977145
9.358	0.0814438221802728
9.36	0.100517115137535
9.362	0.10159728936422
9.364	0.0967013831752191
9.366	0.0945665748758916
9.368	0.0795368782907118
9.37	0.0755211303259078
9.372	0.0854238186539173
9.374	0.0928782381959387
9.376	0.114277855144958
9.378	0.125457691190969
9.38	0.13356339097771
9.382	0.126258495468183
9.384	0.121555024322638
9.386	0.117864311088495
9.388	0.121257269548476
9.39	0.117255705045845
9.392	0.115047941961248
9.394	0.0958155868504
9.396	0.064163835101006
9.398	0.0248846113486547
9.4	-0.0247499999999973
9.402	-0.0811346113486329
9.404	-0.124913835101004
9.406	-0.172315586850407
9.408	-0.209547941961267
9.41	-0.254505705045857
9.412	-0.290007269548478
9.414	-0.291114311088483
9.416	-0.290305024322622
9.418	-0.272508495468162
9.42	-0.250563390977704
9.422	-0.197457691190969
9.424	-0.141277855144989
9.426	-0.0636282381959419
9.428	0.00232618134607698
9.43	0.0549788696740983
9.432	0.1004631217093
9.434	0.10118342512413
9.436	0.0810486168247826
9.438	0.0581527106357732
9.44	0.052482884862443
9.442	0.060306177819709
9.444	0.0564295777022768
9.446	0.0545825991944742
9.448	0.0616564824501006
9.45	0.0452500000000084
9.452	0.035301256898101
9.454	0.0300567210305317
9.456	0.0393090122060135
9.458	0.0623331424052759
9.46	0.0847671151375549
9.462	0.102707969139216
9.464	0.120212793266926
9.466	0.11342725465089
9.468	0.10857913894252
9.47	0.104271130325904
9.472	0.107716079305723
9.474	0.102738917970934
9.476	0.113039265236671
9.478	0.115318370965966
9.48	0.104313390977707
9.482	0.0801478156931887
9.484	0.0687936142309398
9.486	0.0540036313134929
9.488	0.0449650088966711
9.49	0.0502557050458436
9.492	0.0590056813094456
9.494	0.0679549070754013
9.496	0.0609024250093115
9.498	0.0575239315736587
9.5	0.0450000000000093
9.502	0.0324760684263592
9.504	0.0313475749906941
9.506	0.0400450929245911
9.508	0.051244318690536
9.51	0.0644942949541414
9.512	0.0562849911033256
9.514	0.0517463686865173
9.516	0.0234563857690773
9.518	-0.00364781569317809
9.52	-0.0210633909777013
9.522	-0.0298183709659699
9.524	-0.0230392652366883
9.526	-0.0104889179709429
9.528	0.00478392069426793
