const short tabla[10000] = {7635 ,7635 ,7317 ,7317 ,7317 ,7317 ,7317 ,7635 ,7635 ,7635
	 ,7953 ,7953 ,7953 ,7953 ,8271 ,8271 ,8271 ,8271 ,8589 ,8589
	 ,8589 ,8589 ,8589 ,8589 ,8589 ,8589 ,8589 ,8907 ,8907 ,8907
	 ,8907 ,9225 ,9225 ,9225 ,9225 ,9543 ,9543 ,9543 ,9543 ,9543
	 ,9862 ,9862 ,10180 ,10498 ,10498 ,10816 ,10816 ,11134 ,11134 ,11134
	 ,11134 ,10816 ,10816 ,11134 ,11134 ,11452 ,11770 ,11770 ,12088 ,12407
	 ,12725 ,13043 ,13361 ,13679 ,14315 ,14634 ,15270 ,15588 ,16224 ,16542
	 ,16542 ,16860 ,16860 ,16860 ,17179 ,17179 ,17497 ,17815 ,18451 ,19087
	 ,19724 ,20360 ,20996 ,21314 ,21632 ,21951 ,22269 ,22587 ,22905 ,22905
	 ,22905 ,22905 ,22905 ,22587 ,22587 ,22269 ,21951 ,21632 ,21632 ,21314
	 ,21314 ,21314 ,21314 ,20996 ,20678 ,20360 ,19724 ,19087 ,18133 ,17497
	 ,16542 ,15906 ,15588 ,14952 ,14634 ,14315 ,13997 ,13679 ,13361 ,12725
	 ,12088 ,11452 ,11134 ,10816 ,10816 ,11134 ,11770 ,12725 ,13997 ,14952
	 ,15906 ,16542 ,16860 ,17179 ,17179 ,16860 ,16542 ,16542 ,16542 ,16542
	 ,16860 ,16860 ,17179 ,17497 ,17815 ,18133 ,18133 ,18133 ,18133 ,18451
	 ,18451 ,18769 ,18769 ,19087 ,19087 ,19405 ,19405 ,19405 ,19405 ,19405
	 ,19087 ,19087 ,19087 ,18769 ,18769 ,18769 ,19087 ,19087 ,19405 ,19405
	 ,19405 ,19724 ,19724 ,19724 ,19724 ,19405 ,19405 ,19405 ,19405 ,19087
	 ,19087 ,19087 ,19087 ,19087 ,19087 ,18769 ,18769 ,18769 ,19087 ,19087
	 ,19087 ,19405 ,19405 ,19724 ,19724 ,19724 ,19724 ,19405 ,19405 ,19087
	 ,19087 ,18769 ,18451 ,18451 ,18451 ,18133 ,18133 ,18133 ,18133 ,18133
	 ,17815 ,17815 ,17815 ,17497 ,17179 ,17179 ,16860 ,16860 ,16542 ,16542
	 ,16860 ,16860 ,17179 ,17497 ,17815 ,17815 ,17815 ,17815 ,17815 ,17815
	 ,17815 ,17815 ,18133 ,18133 ,18133 ,18133 ,17815 ,17497 ,17179 ,16860
	 ,16224 ,16224 ,16224 ,16224 ,16542 ,17179 ,17497 ,17497 ,17815 ,17815
	 ,17497 ,17179 ,16860 ,16542 ,16542 ,16860 ,16860 ,17179 ,17815 ,18133
	 ,18451 ,18769 ,18769 ,18769 ,19087 ,18769 ,18769 ,18769 ,18451 ,18451
	 ,18133 ,17815 ,17815 ,17497 ,17815 ,18133 ,18451 ,18769 ,19405 ,19724
	 ,20042 ,20360 ,20042 ,19724 ,19405 ,19087 ,18451 ,18133 ,17815 ,17497
	 ,17497 ,17179 ,16860 ,16224 ,15906 ,15588 ,15588 ,15270 ,15270 ,15588
	 ,15906 ,15906 ,16224 ,16224 ,16224 ,16224 ,16224 ,15906 ,15906 ,15906
	 ,15588 ,15588 ,15270 ,15270 ,14952 ,14634 ,14315 ,14315 ,14315 ,14315
	 ,14315 ,14315 ,14315 ,14315 ,13997 ,13997 ,13679 ,13361 ,13043 ,13043
	 ,13043 ,13043 ,13043 ,13361 ,13361 ,13043 ,12725 ,12407 ,12088 ,12088
	 ,12725 ,13997 ,16542 ,19724 ,23859 ,28949 ,34358 ,39766 ,44856 ,48992
	 ,52491 ,54400 ,54718 ,53127 ,50264 ,45810 ,40084 ,33721 ,27041 ,20678
	 ,14952 ,10498 ,7317 ,5726 ,5408 ,6044 ,7635 ,9225 ,11134 ,12407
	 ,13361 ,13997 ,13997 ,13679 ,13361 ,12725 ,12725 ,12407 ,12407 ,12407
	 ,12407 ,12725 ,12725 ,12725 ,12407 ,12407 ,12407 ,12088 ,12088 ,12088
	 ,12088 ,12088 ,12088 ,12407 ,12407 ,12725 ,13043 ,13043 ,13361 ,13361
	 ,13361 ,13361 ,13361 ,13361 ,13361 ,13361 ,13043 ,13043 ,13043 ,13043
	 ,13361 ,13361 ,13679 ,13679 ,13997 ,14315 ,14315 ,14315 ,14315 ,14315
	 ,14315 ,14315 ,14315 ,14315 ,14634 ,14952 ,15270 ,15588 ,15906 ,16224
	 ,16542 ,16542 ,16860 ,16860 ,17179 ,17497 ,17815 ,18133 ,18451 ,19087
	 ,19405 ,19405 ,19724 ,19724 ,19724 ,19724 ,19724 ,20042 ,20360 ,20678
	 ,20996 ,21632 ,22269 ,22587 ,23223 ,23541 ,23859 ,23859 ,24177 ,24177
	 ,24177 ,24177 ,24177 ,24496 ,24496 ,24814 ,25132 ,25450 ,25768 ,26086
	 ,26086 ,25768 ,25450 ,24814 ,23859 ,23223 ,22587 ,22269 ,21951 ,21632
	 ,21314 ,20996 ,20360 ,19724 ,18769 ,17815 ,16860 ,15906 ,15270 ,14634
	 ,14634 ,14634 ,14634 ,14634 ,14634 ,14315 ,13997 ,13361 ,12725 ,12407
	 ,12088 ,11770 ,11770 ,11770 ,12088 ,11770 ,11770 ,11452 ,11134 ,10498
	 ,10180 ,10180 ,9862 ,9862 ,10180 ,10498 ,10816 ,11134 ,11134 ,11452
	 ,11452 ,11452 ,11452 ,11452 ,11452 ,11452 ,11452 ,11452 ,11134 ,11134
	 ,10816 ,10816 ,10816 ,10816 ,11134 ,11134 ,11452 ,11452 ,11452 ,11770
	 ,11452 ,11452 ,11452 ,11134 ,11134 ,11134 ,11134 ,11134 ,11134 ,10816
	 ,10816 ,10816 ,10498 ,10498 ,10498 ,10498 ,10816 ,10816 ,11134 ,11452
	 ,11452 ,11770 ,11452 ,11452 ,11452 ,11134 ,11134 ,11134 ,11134 ,11452
	 ,11452 ,11770 ,12088 ,12407 ,12407 ,12725 ,12725 ,12725 ,12725 ,12725
	 ,12725 ,12725 ,12725 ,12725 ,13043 ,13043 ,13043 ,12725 ,12725 ,12725
	 ,12407 ,12088 ,12088 ,11770 ,11770 ,11770 ,11770 ,11770 ,11770 ,11770
	 ,11770 ,11770 ,11452 ,11452 ,11134 ,11134 ,10816 ,10816 ,10816 ,11134
	 ,11134 ,11134 ,11134 ,11134 ,11134 ,11134 ,11134 ,11134 ,11134 ,11134
	 ,11134 ,11452 ,11770 ,11770 ,12088 ,12088 ,12407 ,12407 ,12407 ,12725
	 ,12725 ,13043 ,13043 ,13361 ,13361 ,13679 ,13679 ,13679 ,13679 ,13679
	 ,13679 ,13679 ,13361 ,13361 ,13043 ,13043 ,12725 ,12725 ,12725 ,13043
	 ,13043 ,13361 ,13997 ,14315 ,14634 ,14952 ,14952 ,14952 ,14952 ,14634
	 ,14315 ,13997 ,13679 ,13361 ,13043 ,12725 ,12407 ,12088 ,11452 ,11134
	 ,10498 ,10180 ,9862 ,9862 ,9862 ,9862 ,10180 ,10180 ,10180 ,10180
	 ,10180 ,10180 ,10180 ,10180 ,10180 ,10180 ,10180 ,10180 ,9862 ,9862
	 ,9543 ,9225 ,8907 ,8907 ,8907 ,8907 ,9225 ,9543 ,9543 ,9543
	 ,9543 ,9225 ,8907 ,8589 ,8271 ,8271 ,8271 ,8271 ,8271 ,8271
	 ,7953 ,7635 ,6998 ,6680 ,6680 ,7317 ,8907 ,11452 ,14634 ,18769
	 ,23859 ,29268 ,34676 ,40084 ,44856 ,48674 ,51537 ,52809 ,52491 ,50264
	 ,46447 ,41038 ,34676 ,27677 ,20360 ,13997 ,8907 ,5408 ,3499 ,3181
	 ,4135 ,6044 ,7953 ,9862 ,11134 ,11452 ,11452 ,10816 ,10180 ,9543
	 ,8907 ,8589 ,8589 ,8907 ,9225 ,9543 ,9543 ,9862 ,9862 ,9862
	 ,9862 ,9862 ,9862 ,10180 ,10498 ,10498 ,10816 ,10816 ,10816 ,10498
	 ,10498 ,10498 ,10816 ,10816 ,11134 ,11452 ,11770 ,12088 ,12088 ,12407
	 ,12407 ,12725 ,12725 ,13043 ,13361 ,13361 ,13679 ,13997 ,13997 ,13997
	 ,13997 ,13679 ,13679 ,13679 ,13679 ,13679 ,13997 ,14315 ,14634 ,15270
	 ,15588 ,15906 ,16224 ,16224 ,16224 ,16224 ,16224 ,15906 ,15906 ,15588
	 ,15588 ,15906 ,16224 ,16542 ,17179 ,17815 ,18769 ,19405 ,19724 ,20360
	 ,20678 ,20996 ,21314 ,21632 ,21951 ,22269 ,22905 ,23223 ,23859 ,24177
	 ,24814 ,25132 ,25132 ,25450 ,25450 ,25450 ,25768 ,26086 ,26086 ,26086
	 ,26086 ,26086 ,25768 ,25450 ,24814 ,24496 ,24177 ,23859 ,23859 ,23859
	 ,23859 ,23859 ,23541 ,23223 ,22587 ,21951 ,20678 ,19724 ,18769 ,17815
	 ,17179 ,16860 ,16860 ,16542 ,16542 ,16224 ,16224 ,15588 ,14952 ,14315
	 ,13679 ,13043 ,12725 ,12407 ,12088 ,12088 ,12088 ,12088 ,11770 ,11770
	 ,11452 ,11134 ,11134 ,10816 ,10816 ,10498 ,10498 ,10816 ,10816 ,11134
	 ,11134 ,11134 ,11452 ,11452 ,11134 ,11134 ,11134 ,11134 ,11134 ,11134
	 ,10816 ,10816 ,10816 ,10816 ,10816 ,10498 ,10498 ,10498 ,10180 ,10180
	 ,9862 ,9543 ,9225 ,9225 ,8907 ,8907 ,8907 ,9225 ,9543 ,9862
	 ,10180 ,10498 ,10816 ,10816 ,10816 ,10816 ,10816 ,10498 ,10498 ,10498
	 ,10816 ,10816 ,11134 ,11134 ,11452 ,11452 ,11134 ,11134 ,10816 ,10816
	 ,10498 ,10498 ,10180 ,10180 ,10180 ,10180 ,10180 ,10180 ,10180 ,10180
	 ,10180 ,9862 ,9862 ,9862 ,9862 ,9862 ,9862 ,9862 ,9862 ,9862
	 ,9862 ,9862 ,9862 ,9543 ,9543 ,9543 ,9543 ,9225 ,9225 ,8907
	 ,8907 ,8589 ,8589 ,8589 ,8589 ,8589 ,8589 ,8589 ,8589 ,8589
	 ,8589 ,8271 ,8271 ,7953 ,7953 ,7953 ,7635 ,7635 ,7635 ,7635
	 ,7635 ,7635 ,7635 ,7635 ,7635 ,7953 ,7953 ,7953 ,8271 ,8271
	 ,8271 ,7953 ,7953 ,7635 ,7317 ,7317 ,6998 ,7317 ,7317 ,7953
	 ,8271 ,8589 ,8907 ,9225 ,8907 ,8589 ,8271 ,7953 ,7635 ,7317
	 ,7317 ,7317 ,7317 ,7635 ,7635 ,7635 ,7635 ,7953 ,7953 ,8271
	 ,8907 ,9543 ,10498 ,11452 ,12407 ,13361 ,14315 ,14952 ,15270 ,15588
	 ,15906 ,15906 ,15906 ,15906 ,16224 ,16224 ,16542 ,16860 ,17497 ,17815
	 ,18133 ,18769 ,19087 ,19405 ,19724 ,20042 ,20042 ,20042 ,20360 ,20360
	 ,20360 ,20360 ,20042 ,20042 ,20042 ,19724 ,19724 ,19405 ,19087 ,19087
	 ,18769 ,18451 ,18451 ,18133 ,17815 ,17497 ,17497 ,17179 ,16860 ,16860
	 ,16860 ,16860 ,16860 ,17179 ,17179 ,17179 ,17179 ,16860 ,16542 ,16224
	 ,15906 ,15588 ,15270 ,14952 ,14634 ,14634 ,14634 ,14634 ,14634 ,14952
	 ,14952 ,15270 ,15270 ,15588 ,15588 ,15270 ,15270 ,15270 ,14952 ,14952
	 ,14952 ,14952 ,14634 ,14634 ,14634 ,14315 ,13679 ,13361 ,12725 ,12407
	 ,12088 ,12407 ,13361 ,14952 ,17497 ,20678 ,24814 ,29586 ,34676 ,40402
	 ,46129 ,51537 ,56309 ,59808 ,61717 ,61717 ,59808 ,55672 ,49946 ,42947
	 ,35312 ,27995 ,21314 ,15906 ,12088 ,10180 ,9543 ,10180 ,11452 ,12725
	 ,14315 ,15270 ,15588 ,15906 ,15906 ,15906 ,15906 ,16224 ,16542 ,16860
	 ,16860 ,17179 ,17179 ,16860 ,16542 ,16224 ,15906 ,15588 ,15588 ,15906
	 ,16224 ,16542 ,16860 ,16860 ,17179 ,16860 ,16860 ,16542 ,16542 ,16542
	 ,16224 ,16224 ,16224 ,16224 ,16224 ,16224 ,16224 ,16224 ,16224 ,16224
	 ,16542 ,16542 ,16860 ,17179 ,17497 ,17497 ,17815 ,17815 ,17815 ,17815
	 ,17815 ,17497 ,17497 ,17497 ,17815 ,17815 ,17815 ,18133 ,18133 ,18133
	 ,18451 ,18451 ,18769 ,19087 ,19405 ,19724 ,20042 ,20360 ,20678 ,20678
	 ,20996 ,20996 ,20996 ,21314 ,21632 ,21951 ,22587 ,23223 ,23859 ,24496
	 ,25450 ,25768 ,26404 ,26723 ,26723 ,27041 ,27041 ,27041 ,27041 ,27041
	 ,27359 ,27677 ,27995 ,27995 ,28313 ,28631 ,28631 ,28631 ,28313 ,27995
	 ,27677 ,27359 ,27041 ,26723 ,26723 ,26404 ,26086 ,25768 ,25132 ,24496
	 ,23541 ,22587 ,21632 ,20678 ,19724 ,19087 ,18451 ,18133 ,17815 ,17815
	 ,17497 ,16860 ,16542 ,15906 ,15270 ,14634 ,13997 ,13679 ,13361 ,13043
	 ,13043 ,12725 ,12725 ,12407 ,11770 ,11452 ,11134 ,10816 ,10816 ,10816
	 ,10816 ,11134 ,11134 ,11134 ,10816 ,10498 ,10180 ,9862 ,9225 ,9225
	 ,9225 ,9225 ,9543 ,9862 ,10180 ,10180 ,10180 ,9862 ,9543 ,9225
	 ,8907 ,8589 ,8589 ,8589 ,8589 ,9225 ,9543 ,10180 ,10498 ,10816
	 ,11134 ,10816 ,10816 ,10498 ,10180 ,9862 ,9543 ,9543 ,9225 ,9225
	 ,9225 ,9543 ,9543 ,9862 ,9862 ,10180 ,10180 ,10498 ,10498 ,10498
	 ,10498 ,10180 ,10180 ,9862 ,9543 ,9543 ,9543 ,9543 ,9543 ,9862
	 ,9862 ,10180 ,10180 ,10180 ,10180 ,10180 ,9862 ,9862 ,9862 ,9862
	 ,9862 ,9862 ,9862 ,9862 ,9543 ,9225 ,9225 ,8907 ,8907 ,8589
	 ,8589 ,8589 ,8907 ,8907 ,8907 ,9225 ,9225 ,9225 ,9225 ,9225
	 ,8907 ,8907 ,8907 ,9225 ,9225 ,9543 ,9862 ,10180 ,10498 ,10498
	 ,10816 ,10816 ,10816 ,10498 ,10180 ,9862 ,9225 ,8907 ,8907 ,8589
	 ,8907 ,8907 ,9225 ,9862 ,9862 ,10180 ,10180 ,10180 ,9862 ,9543
	 ,9543 ,9225 ,8907 ,8907 ,8907 ,8907 ,8907 ,8907 ,8907 ,8907
	 ,8589 ,8589 ,8589 ,8589 ,8589 ,8589 ,8589 ,8589 ,8589 ,8907
	 ,8907 ,8907 ,9225 ,9543 ,9543 ,9862 ,10180 ,10180 ,10498 ,10498
	 ,10180 ,10180 ,9862 ,9543 ,9225 ,9225 ,9225 ,9225 ,9225 ,9543
	 ,9543 ,9862 ,9862 ,9862 ,9862 ,9862 ,9862 ,9543 ,9543 ,9543
	 ,9862 ,9862 ,9862 ,10180 ,10180 ,10498 ,10498 ,10816 ,10816 ,10816
	 ,10816 ,10816 ,10816 ,10498 ,10180 ,9862 ,9862 ,9543 ,9543 ,9543
	 ,9862 ,10180 ,10180 ,10498 ,10498 ,10498 ,10498 ,10498 ,10498 ,10498
	 ,10816 ,10816 ,11134 ,11134 ,11452 ,11452 ,11452 ,11452 ,11452 ,11452
	 ,11452 ,11452 ,11452 ,11770 ,11770 ,12088 ,12088 ,12407 ,12407 ,12725
	 ,13043 ,13361 ,13679 ,13679 ,13997 ,14315 ,14634 ,14634 ,14634 ,14634
	 ,14634 ,14634 ,14315 ,14315 ,14315 ,14315 ,14315 ,14315 ,14315 ,14315
	 ,13997 ,13997 ,13679 ,13361 ,13043 ,12407 ,12088 ,11452 ,11134 ,10498
	 ,10180 ,10180 ,9862 ,9862 ,10180 ,10498 ,10498 ,10816 ,11134 ,11134
	 ,11452 ,11452 ,11134 ,11134 ,10816 ,10816 ,10498 ,10180 ,10180 ,9862
	 ,9543 ,9543 ,9543 ,9543 ,9543 ,9543 ,9543 ,9543 ,9543 ,9543
	 ,9543 ,9543 ,9862 ,9862 ,10180 ,10180 ,10498 ,10498 ,10498 ,10180
	 ,9862 ,9543 ,9225 ,8907 ,8907 ,9225 ,9862 ,11134 ,13043 ,15906
	 ,19405 ,23541 ,28631 ,34358 ,40084 ,45810 ,50582 ,54718 ,57263 ,57581
	 ,56309 ,52491 ,47083 ,40402 ,32767 ,25450 ,18451 ,12725 ,8589 ,6362
	 ,5408 ,5408 ,6362 ,7953 ,9225 ,10180 ,11134 ,11770 ,12088 ,12088
	 ,12407 ,12725 ,13043 ,13361 ,13679 ,13997 ,13997 ,13997 ,13679 ,13679
	 ,13361 ,13361 ,13361 ,13361 ,13361 ,13361 ,13679 ,13361 ,13361 ,13361
	 ,13361 ,13679 ,13679 ,13997 ,13997 ,14315 ,14315 ,14634 ,14634 ,14634
	 ,14634 ,14315 ,14315 ,14315 ,14634 ,14315 ,14315 ,14315 ,14315 ,14315
	 ,14315 ,14315 ,14315 ,14634 ,14952 ,15270 ,15588 ,15906 ,15906 ,16224
	 ,16224 ,16542 ,16542 ,16860 ,17179 ,17497 ,18133 ,18451 ,18769 ,18769
	 ,19087 ,19087 ,19087 ,19087 ,19087 ,19405 ,19724 ,20360 ,20678 ,20996
	 ,21632 ,21951 ,22269 ,22587 ,22905 ,23223 ,23541 ,24177 ,24496 ,25132
	 ,25450 ,26086 ,26404 ,26723 ,26723 ,27041 ,27359 ,27359 ,27677 ,27995
	 ,28313 ,28313 ,28631 ,28949 ,29268 ,29268 ,29268 ,28949 ,28631 ,27995
	 ,27359 ,26404 ,25768 ,24814 ,24177 ,23859 ,23541 ,23541 ,23541 ,23541
	 ,23223 ,22905 ,22269 ,21314 ,20042 ,19087 ,17815 ,16860 ,16224 ,15906
	 ,15906 ,15906 ,15906 ,15906 ,15906 ,15588 ,14952 ,14634 ,13997 ,13361
	 ,13361 ,13043 ,13043 ,13043 ,13043 ,13043 ,13043 ,13043 ,12725 ,12725
	 ,12407 ,12088 ,11770 ,11770 ,11770 ,11770 ,11770 ,11770 ,12088 ,12088
	 ,12088 ,11770 ,11770 ,11452 ,11452 ,11452 ,11452 ,11452 ,11770 ,11770
	 ,12088 ,12407 ,12725 ,13043 ,13043 ,12725 ,12407 ,12088 ,11770 ,11452
	 ,11134 ,11134 ,10816 ,10816 ,10816 ,10816 ,11134 ,11452 ,11770 ,11770
	 ,12088 ,12088 ,12088 ,12088 ,11770 ,11770 ,11452 ,11452 ,11452 ,11452
	 ,11770 ,12407 ,13043 ,13361 ,13679 ,13997 ,13997 ,13679 ,13361 ,13043
	 ,12407 ,12088 ,12088 ,12088 ,12088 ,12407 ,12725 ,13043 ,13043 ,13361
	 ,13361 ,13361 ,13361 ,13043 ,13043 ,12725 ,12725 ,12407 ,12407 ,12088
	 ,12088 ,11770 ,11770 ,11452 ,11134 ,11134 ,11134 ,11134 ,11452 ,11770
	 ,12088 ,12407 ,12725 ,12725 ,12725 ,12407 ,12088 ,11452 ,11134 ,10498
	 ,10498 ,10180 ,10180 ,10498 ,10498 ,10816 ,10816 ,10816 ,10816 ,10498
	 ,10498 ,10180 ,10180 ,10180 ,10498 ,10498 ,10816 ,11134 ,11452 ,11452
	 ,11770 ,11770 ,11770 ,11770 ,11770 ,11770 ,11452 ,11452 ,11134 ,10816
	 ,10498 ,10180 ,10180 ,9862 ,9862 ,10180 ,10498 ,10816 ,11134 ,11452
	 ,11452 ,11452 ,11134 ,10816 ,10816 ,10498 ,10180 ,9862 ,9543 ,9543
	 ,9225 ,9225 ,9225 ,9225 ,9225 ,9225 ,9543 ,9543 ,9862 ,9862
	 ,10180 ,10498 ,10498 ,10816 ,10816 ,10816 ,10816 ,10816 ,10498 ,10498
	 ,10180 ,10180 ,10180 ,10498 ,10498 ,10816 ,11134 ,11452 ,12088 ,12407
	 ,12725 ,12725 ,13043 ,13361 ,13679 ,13997 ,14315 ,14952 ,15270 ,15588
	 ,15906 ,16224 ,16224 ,16542 ,16542 ,16860 ,16860 ,17179 ,17497 ,17815
	 ,17815 ,18133 ,18451 ,18769 ,18769 ,18769 ,18769 ,18769 ,18769 ,18769
	 ,19087 ,19087 ,19405 ,19724 ,20042 ,20360 ,20678 ,20678 ,20996 ,21314
	 ,21632 ,21951 ,21951 ,22269 ,22269 ,22269 ,22269 ,22269 ,22269 ,21951
	 ,21632 ,21314 ,21314 ,21314 ,20996 ,20996 ,20996 ,20996 ,20996 ,20996
	 ,20678 ,20360 ,20360 ,20042 ,19724 ,19724 ,19724 ,19405 ,19405 ,19087
	 ,18769 ,18451 ,18133 ,17815 ,17497 ,17497 ,17179 ,17179 ,17497 ,17497
	 ,17179 ,17179 ,16860 ,16542 ,16224 ,15906 ,15588 ,15588 ,15588 ,15906
	 ,16224 ,16542 ,16860 ,17179 ,17497 ,17497 ,17497 ,17179 ,16860 ,16542
	 ,16224 ,15906 ,15906 ,15906 ,15906 ,15906 ,15906 ,15906 ,15588 ,15270
	 ,14634 ,14315 ,13997 ,13997 ,14634 ,15906 ,17815 ,20678 ,24177 ,28313
	 ,33085 ,38175 ,43265 ,48037 ,52173 ,55036 ,56627 ,56627 ,55036 ,51219
	 ,46129 ,39766 ,32767 ,25450 ,19087 ,13997 ,10180 ,8271 ,7635 ,8589
	 ,9862 ,11770 ,13679 ,15270 ,16224 ,16860 ,16860 ,16860 ,16860 ,16860
	 ,16860 ,17179 ,17497 ,17497 ,17497 ,17497 ,17179 ,16860 ,16542 ,16224
	 ,15906 ,15906 ,15906 ,15906 ,16224 ,16224 ,16542 ,16542 ,16542 ,16860
	 ,16860 ,16542 ,16542 ,16542 ,16542 ,16542 ,16542 ,16542 ,16860 ,16860
	 ,16860 ,16860 ,16860 ,16860 ,16860 ,16860 ,16860 ,17179 ,17179 ,17497
	 ,17815 ,18133 ,18451 ,18769 ,19087 ,19087 ,19405 ,19087 ,19087 ,18769
	 ,18451 ,18133 ,18133 ,18133 ,18133 ,18451 ,18451 ,18769 ,19087 ,19405
	 ,19724 ,20042 ,20360 ,20996 ,21314 ,21951 ,22587 ,22905 ,23223 ,23541
	 ,23859 ,23859 ,23859 ,24177 ,24177 ,24496 ,24814 ,25450 ,25768 ,26404
	 ,26723 ,27041 ,27041 ,27041 ,27041 ,27041 ,26723 ,26723 ,26723 ,26723
	 ,27041 ,27359 ,27359 ,27359 ,27359 ,27041 ,27041 ,26404 ,26086 ,25450
	 ,24814 ,24177 ,23541 ,22905 ,21951 ,21314 ,20678 ,19724 ,18769 ,18133
	 ,17497 ,16860 ,16224 ,15588 ,15270 ,14952 ,14315 ,13997 ,13679 ,13361
	 ,13043 ,12407 ,12088 ,11770 ,11452 ,11452 ,11134 ,11134 ,10816 ,10816
	 ,10498 ,9862 ,9543 ,8907 ,8589 ,8271 ,7953 ,7953 ,7953 ,7953
	 ,8271 ,8271 ,8589 ,8589 ,8589 ,8589 ,8271 ,8271 ,8271 ,8271
	 ,8271 ,8271 ,8271 ,8271 ,7953 ,7953 ,7635 ,7635 ,7635 ,7317
	 ,7317 ,7635 ,7635 ,7953 ,7953 ,8271 ,8271 ,8271 ,8271 ,8271
	 ,8271 ,7953 ,7953 ,7953 ,7953 ,8271 ,8271 ,8589 ,8907 ,8907
	 ,9225 ,9225 ,9225 ,8907 ,8589 ,8589 ,8271 ,8271 ,8271 ,8271
	 ,8589 ,9225 ,9543 ,9862 ,10180 ,10498 ,10498 ,10180 ,9862 ,9543
	 ,9225 ,8907 ,8907 ,8907 ,9225 ,9225 ,9543 ,9543 ,9543 ,9543
	 ,9543 ,9225 ,9225 ,9225 ,9225 ,9225 ,9543 ,9862 ,9862 ,9862
	 ,9862 ,9543 ,9225 ,8907 ,8589 ,8589 ,8271 ,8271 ,7953 ,8271
	 ,8271 ,8271 ,8271 ,8589 ,8589 ,8907 ,8907 ,8907 ,8907 ,8907
	 ,8589 ,8589 ,8271 ,8271 ,8271 ,7953 ,7953 ,7953 ,7953 ,7953
	 ,7635 ,7635 ,7635 ,7317 ,7317 ,7317 ,7635 ,7953 ,8271 ,8589
	 ,8907 ,9225 ,9225 ,9225 ,9225 ,8907 ,8589 ,8271 ,8271 ,7953
	 ,7953 ,8271 ,8271 ,8589 ,8907 ,8907 ,9225 ,9225 ,9225 ,8907
	 ,8907 ,8589 ,8271 ,7953 ,7953 ,7635 ,7953 ,7953 ,8271 ,8589
	 ,8907 ,9225 ,9543 ,9543 ,9225 ,8907 ,8271 ,7953 ,7635 ,7317
	 ,6998 ,7317 ,7635 ,7953 ,8271 ,8907 ,9225 ,9543 ,9543 ,9543
	 ,9543 ,9225 ,9225 ,8907 ,8907 ,8907 ,8907 ,8907 ,8907 ,9225
	 ,9225 ,9225 ,9225 ,9225 ,9225 ,9225 ,8907 ,8907 ,8907 ,8589
	 ,8589 ,8589 ,8589 ,8907 ,9225 ,9543 ,9862 ,10180 ,10816 ,11134
	 ,11134 ,11452 ,11452 ,11452 ,11452 ,11452 ,11452 ,11770 ,11770 ,11770
	 ,12088 ,12407 ,12725 ,12725 ,13043 ,13361 ,13361 ,13361 ,13361 ,13361
	 ,13043 ,13043 ,12725 ,12407 ,12407 ,12088 ,12088 ,11770 ,11770 ,11452
	 ,11134 ,11134 ,10816 ,10498 ,10498 ,10180 ,10180 ,10180 ,10180 ,9862
	 ,9862 ,9862 ,9862 ,9543 ,9225 ,9225 ,8907 ,8589 ,8589 ,8271
	 ,8271 ,8271 ,8271 ,8271 ,8271 ,8271 ,8589 ,8589 ,8589 ,8589
	 ,8589 ,8907 ,8907 ,9225 ,9543 ,9543 ,9543 ,9543 ,9543 ,9543
	 ,9225 ,8907 ,8907 ,8589 ,8589 ,8271 ,8271 ,7953 ,7635 ,7635
	 ,7317 ,7635 ,7953 ,9225 ,10816 ,13679 ,16860 ,21314 ,26086 ,31494
	 ,37221 ,42629 ,47401 ,51219 ,53446 ,53764 ,52491 ,49310 ,44538 ,38175
	 ,31494 ,24496 ,17815 ,12407 ,8271 ,5726 ,4453 ,4453 ,5408 ,6362
	 ,7635 ,8907 ,9543 ,10180 ,10180 ,10180 ,10180 ,10498 ,10498 ,10816
	 ,11134 ,11452 ,11770 ,11770 ,11770 ,11770 ,11770 ,11770 ,11770 ,12088
	 ,12088 ,12088 ,12088 ,12088 ,12088 ,12088 ,12088 ,12407 ,12407 ,12725
	 ,12725 ,13043 ,13043 ,13043 ,13043 ,13043 ,13043 ,13043 ,13043 ,13043
	 ,13361 ,13679 ,13997 ,14315 ,14634 ,14634 ,14952 ,14952 ,14952 ,14952
	 ,14952 ,14952 ,14952 ,14952 ,15270 ,15270 ,15588 ,15906 ,15906 ,16224
	 ,16224 ,16224 ,16542 ,16542 ,16542 ,16542 ,16860 ,17179 ,17497 ,17815
	 ,18133 ,18451 ,18769 ,19087 ,19405 ,19724 ,20042 ,20360 ,20678 ,20996
	 ,21314 ,21632 ,22269 ,22587 ,23223 ,23541 ,24177 ,24496 ,25132 ,25450
	 ,25768 ,26086 ,26086 ,26404 ,26723 ,26723 ,26723 ,26723 ,26723 ,26723
	 ,26723 ,26723 ,26723 ,26723 ,26723 ,26404 ,26404 ,26404 ,26086 ,25768
	 ,25450 ,24814 ,24177 ,23541 ,22905 ,22269 ,21632 ,21314 ,20678 ,20042
	 ,19405 ,18769 ,18133 ,17179 ,16542 ,15906 ,15270 ,14952 ,14634 ,14634
	 ,14634 ,14634 ,14634 ,14634 ,14315 ,13997 ,13997 ,13679 ,13361 ,13043
	 ,12725 ,12725 ,12725 ,12725 ,13043 ,13043 ,13361 ,13361 ,13361 ,13361
	 ,13043 ,12725 ,12407 ,12088 ,11770 ,11452 ,11134 ,10816 ,10816 ,11134
	 ,11134 ,11452 ,11770 ,11770 ,12088 ,12407 ,12407 ,12725 ,12725 ,13043
	 ,13043 ,13043 ,13043 ,13043 ,12725 ,12725 ,12407 ,12407 ,12407 ,12407
	 ,12725 ,12725 ,13043 ,13361 ,13679 ,13997 ,13997 ,13997 ,14315 ,14315
	 ,14315 ,14315 ,14315 ,14315 ,14315 ,14315 ,14315 ,13997 ,13679 ,13679
	 ,13361 ,13361 ,13043 ,13043 ,13361 ,13361 ,13361 ,13361 ,13361 ,13361
	 ,13361 ,13043 ,13043 ,12725 ,12725 ,12725 ,12725 ,12725 ,13043 ,13361
	 ,13679 ,13679 ,13997 ,13997 ,13997 ,13997 ,13997 ,13997 ,13679 ,13679
	 ,13361 ,13361 ,13043 ,13043 ,13043 ,12725 ,12725 ,12407 ,12407 ,12407
	 ,12407 ,12407 ,12407 ,12407 ,12725 ,12725 ,13043 ,13043 ,13043 ,13043
	 ,13043 ,12725 ,12407 ,12407 ,12088 ,12088 ,12088 ,12407 ,12407 ,12725
	 ,12725 ,12725 ,12407 ,12088 ,11452 ,11134 ,10816 ,10816 ,10816 ,10816
	 ,11134 ,11452 ,11770 ,12088 ,12088 ,12088 ,12088 ,12088 ,12088 ,11770
	 ,11770 ,11770 ,11770 ,11770 ,11770 ,11770 ,11770 ,11770 ,11770 ,11770
	 ,11452 ,11452 ,11452 ,11452 ,11452 ,11452 ,11452 ,11452 ,11452 ,11770
	 ,11770 ,12088 ,12088 ,12088 ,12088 ,11770 ,11770 ,11452 ,11452 ,11134
	 ,11134 ,11134 ,11134 ,11134 ,10816 ,10816 ,10816 ,10498 ,10498 ,10498
	 ,10180 ,10498 ,10498 ,10816 ,11134 ,11134 ,11452 ,11452 ,11134 ,11134
	 ,10816 ,10180 ,9862 ,9543 ,9225 ,9225 ,9543 ,9862 ,10180 ,10498
	 ,10816 ,11134 ,11134 ,10816 ,10816 ,10498 ,10498 ,10498 ,10498 ,10498
	 ,10816 ,11134 ,11452 ,11452 ,11452 ,11452 ,11452 ,11770 ,11770 ,11770
	 ,12088 ,12407 ,12725 ,13043 ,13361 ,13679 ,13679 ,13679 ,13679 ,13679
	 ,13679 ,13997 ,14634 ,14952 ,15906 ,16542 ,17179 ,17815 ,18451 ,19087
	 ,19405 ,19724 ,20042 ,20360 ,20678 ,20678 ,20996 ,21314 ,21314 ,21314
	 ,21314 ,20996 ,20678 ,20360 ,20042 ,19724 ,19724 ,19724 ,19724 ,20042
	 ,20360 ,20360 ,20678 ,20678 ,20678 ,20678 ,20678 ,20678 ,20360 ,20360
	 ,20360 ,20360 ,20042 ,20042 ,20042 ,19724 ,19724 ,19405 ,19405 ,19405
	 ,19405 ,19405 ,19405 ,19405 ,19405 ,19405 ,19405 ,19087 ,19087 ,18769
	 ,18451 ,18451 ,18133 ,17815 ,17497 ,17179 ,16860 ,16860 ,16860 ,17497
	 ,18769 ,20360 ,23223 ,26404 ,30858 ,35630 ,41357 ,47083 ,52809 ,57899
	 ,62035 ,64580 ,65535 ,64262 ,61081 ,55991 ,49628 ,42311 ,34676 ,27359
	 ,21314 ,16860 ,13997 ,12725 ,13043 ,13997 ,15588 ,17179 ,18769 ,19724
	 ,20360 ,20360 ,20360 ,20360 ,20042 ,20042 ,20360 ,20360 ,20360 ,20678
	 ,20360 ,20360 ,20042 ,19724 ,19724 ,19405 ,19087 ,19087 ,19087 ,19087
	 ,18769 ,18769 ,18769 ,18769 ,18769 ,18769 ,19087 ,19087 ,19405 ,19405
	 ,19724 ,19724 ,19724 ,19724 ,19724 ,19724 ,19724 ,19724 ,19724 ,20042
	 ,20360 ,20678 ,20996 ,21314 ,21632 ,21632 ,21632 ,21632 ,21632 ,21632
	 ,21632 ,21632 ,21632 ,21951 ,21951 ,22269 ,22587 ,22587 ,22587 ,22587
	 ,22587 ,22587 ,22587 ,22587 ,22587 ,22587 ,22905 ,23223 ,23859 ,24177
	 ,24496 ,25132 ,25450 ,25768 ,26086 ,26723 ,27041 ,27677 ,27995 ,28631
	 ,28949 ,29586 ,29904 ,30222 ,30540 ,30858 ,31176 ,31176 ,31494 ,31494
	 ,31813 ,32131 ,32131 ,32449 ,32449 ,32767 ,32767 ,33085 ,33085 ,33085
	 ,33085 ,32767 ,32449 ,32131 ,31494 ,30540 ,29904 ,28949 ,28313 ,27359
	 ,26723 ,26086 ,25450 ,24496 ,23859 ,22905 ,21951 ,20996 ,20360 ,19405
	 ,19087 ,18451 ,18133 ,17815 ,17497 ,17179 ,16542 ,15906 ,15270 ,14315
	 ,13679 ,13043 ,12725 ,12407 ,12088 ,12088 ,12088 ,12407 ,12088 ,12088
	 ,12088 ,11770 ,11452 ,11134 ,11134 ,11134 ,11134 ,11134 ,11134 ,11134
	 ,11134 ,10816 ,10498 ,10498 ,10180 ,9862 ,9862 ,9862 ,9862 ,9862
	 ,10180 ,10180 ,10498 ,10498 ,10498 ,10498 ,10180 ,10180 ,10180 ,10180
	 ,10180 ,10180 ,10180 ,10180 ,9862 ,9543 ,9543 ,9225 ,8907 ,8907
	 ,8589 ,8907 ,8907 ,9225 ,9225 ,9543 ,9543 ,9543 ,9543 ,9543
	 ,9862 ,9862 ,9862 ,10180 ,10180 ,10180 ,10498 ,10498 ,10180 ,10180
	 ,9862 ,9543 ,9225 ,9225 ,8907 ,8907 ,8907 ,8907 ,9225 ,9225
	 ,9543 ,9543 ,9543 ,9543 ,9225 ,8907 ,8589 ,8271 ,7953 ,7953
	 ,7635 ,7635 ,7635 ,7953 ,7953 ,8271 ,8589 ,8589 ,8907 ,8907
	 ,8907 ,8589 ,8589 ,8589 ,8589 ,8589 ,8589 ,8589 ,8589 ,8589
	 ,8271 ,8271 ,7953 ,7635 ,7317 ,6998 ,6680 ,6680 ,6680 ,6362
	 ,6362 ,6362 ,6680 ,6680 ,6680 ,6998 ,6998 ,7317 ,7317 ,7317
	 ,7317 ,6998 ,6998 ,6680 ,6362 ,5726 ,5726 ,5408 ,5408 ,5408
	 ,5726 ,6044 ,6044 ,6362 ,6362 ,6680 ,6680 ,6680 ,6680 ,6680
	 ,6680 ,6680 ,6680 ,6680 ,6680 ,6680 ,6680 ,6680 ,6680 ,6680
	 ,6680 ,6998 ,6998 ,7317 ,7317 ,7317 ,7317 ,6998 ,6998 ,6680
	 ,6680 ,6680 ,6680 ,6680 ,6998 ,7317 ,7635 ,7953 ,7953 ,8271
	 ,8271 ,8271 ,8271 ,8271 ,7953 ,7953 ,7953 ,7635 ,7635 ,7635
	 ,7635 ,7635 ,7953 ,8271 ,8589 ,8907 ,9225 ,9225 ,9225 ,9225
	 ,9225 ,8907 ,8907 ,8907 ,8907 ,8907 ,9225 ,9543 ,9543 ,9543
	 ,9543 ,9543 ,9543 ,9862 ,9862 ,10180 ,10816 ,11134 ,11770 ,12407
	 ,12725 ,13043 ,13361 ,13361 ,13361 ,13043 ,12725 ,12407 ,11770 ,11134
	 ,10816 ,10180 ,9862 ,9225 ,8907 ,8589 ,8589 ,8271 ,8271 ,7953
	 ,7635 ,7635 ,7317 ,6998 ,6998 ,6998 ,6998 ,7317 ,7635 ,7635
	 ,7953 ,8271 ,8271 ,8271 ,8271 ,7953 ,7953 ,7635 ,7317 ,7317
	 ,6998 ,6680 ,6680 ,6362 ,6362 ,6680 ,6680 ,6998 ,7317 ,7317
	 ,7635 ,7635 ,7635 ,7317 ,6998 ,6680 ,6680 ,6362 ,6362 ,6362
	 ,6362 ,6362 ,6362 ,6680 ,6998 ,7953 ,9862 ,12407 ,15906 ,20360
	 ,25768 ,31176 ,36903 ,41993 ,46129 ,48674 ,49946 ,49310 ,46765 ,42947
	 ,37539 ,31494 ,25132 ,18769 ,13043 ,8589 ,5090 ,2863 ,1908 ,2226
	 ,3181 ,4771 ,6680 ,8271 ,9543 ,10180 ,10816 ,10816 ,10816 ,10816
	 ,10816 ,11134 ,11134 ,11134 ,11134 ,10816 ,10498 ,10180 ,9862 ,9543
	 ,9543 ,9543 ,9862 ,10180 ,10816 ,11134 ,11452 ,11770 ,11770 ,11770
	 ,11770 ,11452 ,11452 ,11452 ,11452 ,11452 ,11770 ,11770 ,12088 ,12088
	 ,12088 ,12088 ,12088 ,12088 ,12088 ,12088 ,12088 ,12088 ,12407 ,12407
	 ,12725 ,13043 ,13679 ,13997 ,14315 ,14634 ,14952 ,14952 ,15270 ,15270
	 ,15588 ,15588 ,15906 ,16224 ,16224 ,16542 ,16860 ,16860 ,17179 ,17179
	 ,16860 ,16860 ,16860 ,16860 ,17179 ,17497 ,17815 ,18451 ,19087 ,19724
	 ,20360 ,20996 ,21314 ,21951 ,22269 ,22587 ,22905 ,23223 ,23541 ,23859
	 ,24177 ,24496 ,24814 ,25132 ,25132 ,25132 ,25132 ,25132 ,25132 ,25132
	 ,25132 ,25450 ,25450 ,25768 ,26086 ,26086 ,26404 ,26086 ,26086 ,25768
	 ,25450 ,24814 ,24496 ,23859 ,23223 ,22587 ,21951 ,21314 ,20678 ,20042
	 ,19405 ,18769 ,18451 ,18133 ,17815 ,17497 ,17179 ,16860 ,16542 ,16224
	 ,15588 ,14952 ,14315 ,13679 ,13361 ,13043 ,12725 ,12407 ,12407 ,12407
	 ,12407 ,12725 ,12725 ,12725 ,12407 ,12407 ,12407 ,12088 ,11770 ,11770
	 ,11770 ,11452 ,11452 ,11452 ,11452 ,11452 ,11452 ,11770 ,11770 ,11770
	 ,12088 ,12088 ,12088 ,12088 ,12407 ,12407 ,12407 ,12407 ,12407 ,12407
	 ,12407 ,12407 ,12725 ,12725 ,12725 ,12725 ,12407 ,12407 ,12407 ,12088
	 ,12088 ,12088 ,12088 ,12088 ,12407 ,12725 ,12725 ,13043 ,13361 ,13361
	 ,13679 ,13679 ,13679 ,13361 ,13361 ,13043 ,12725 ,12725 ,12407 ,12407
	 ,12407 ,12407 ,12725 ,12725 ,13361 ,13679 ,13997 ,13997 ,13997 ,13997
	 ,13997 ,13679 ,13361 ,13043 ,13043 ,12725 ,12725 ,13043 ,13043 ,13043
	 ,13361 ,13361 ,13361 ,13361 ,13361 ,13361 ,13361 ,13361 ,13043 ,13043
	 ,13043 ,12725 ,12725 ,12407 ,12407 ,12088 ,12088 ,12088 ,12088 ,12088
	 ,12088 ,12088 ,11770 ,11770 ,11770 ,11770 ,11770 ,11770 ,12088 ,12088
	 ,12407 ,12407 ,12407 ,12407 ,12407 ,12088 ,12088 ,12088 ,12088 ,12088
	 ,12407 ,12725 ,13043 ,13043 ,13361 ,13361 ,13361 ,13043 ,13043 ,12725
	 ,12407 ,12407 ,12088 ,12407 ,12407 ,12725 ,13043 ,13043 ,13043 ,13043
	 ,12725 ,12407 ,12088 ,11452 ,11134 ,10816 ,10498 ,10498 ,10498 ,10816
	 ,11134 ,11452 ,11770 ,12088 ,12088 ,12407 ,12407 ,12725 ,12725 ,12725
	 ,12725 ,12725 ,12725 ,12407 ,12407 ,12088 ,12088 ,11770 ,11770 ,11770
	 ,11770 ,11770 ,11770 ,11770 ,11770 ,11770 ,11770 ,11770 ,11770 ,11770
	 ,11452 ,11452 ,11770 ,12088 ,12407 ,12725 ,13361 ,13997 ,14315 ,14634
	 ,14634 ,14315 ,14315 ,13997 ,13679 ,13361 ,13043 ,13361 ,13679 ,13997
	 ,14634 ,15270 ,15588 ,16224 ,16224 ,16542 ,16542 ,16224 ,16224 ,15906
	 ,15906 ,15906 ,15588 ,15588 ,15270 ,14952 ,14315 ,13679 ,13043 ,12407
	 ,11770 ,11452 ,11134 ,11134 ,11134 ,11134 ,11452 ,11452 ,11452 ,11452
	 ,11452 ,11452 ,11134 ,11134 ,11134 ,11134 ,11134 ,11134 ,11134 ,11134
	 ,11134 ,10816 ,10498 ,10498 ,10180 ,10180 ,9862 ,10180 ,10180 ,10498
	 ,10498 ,10816 ,10816 ,10816 ,10816 ,10816 ,10816 ,10816 ,10816 ,10498
	 ,10498 ,9862 ,9543 ,8907 ,8589 ,8271 ,8271 ,8589 ,9543 ,11452
	 ,13679 ,16860 ,20678 ,24496 ,28949 ,33403 ,37539 ,41357 ,44220 ,46129
	 ,46447 ,45810 ,43265 ,39448 ,34358 ,28631 ,22587 ,16860 ,11770 ,7953
	 ,5408 ,4453 ,4771 ,5726 ,7317 ,9225 ,10498 ,11452 ,12088 ,11770
	 ,11452 ,11134 ,10816 ,10816 ,11134 ,11452 ,12088 ,12407 ,12725 ,12407
	 ,12088 ,11452 ,10816 ,10498 ,9862 ,9862 ,9862 ,10180 ,10816 ,11134
	 ,11770 ,12088 ,12088 ,12407 ,12088 ,12088 ,12088 ,12088 ,12088 ,12088
	 ,12407 ,12725 ,12725 ,13043 ,13043 ,13043 ,13043 ,13361 ,13997 ,14634
	 ,15270 ,16224 ,17179 ,18133 ,19405 ,20042 ,20678 ,21314 ,21951 ,22269
	 ,22905 ,23223 ,23541 ,23859 ,24177 ,24177 ,24496 ,24496 ,24814 ,25132
	 ,25768 ,26086 ,26723 ,27359 ,27995 ,28313 ,28631 ,28949 ,28949 ,28631
	 ,28631 ,28631 ,28949 ,29268 ,29904 ,30540 ,31494 ,32131 ,32767 ,33403
	 ,34040 ,34358 ,34676 ,34676 ,34994 ,34994 ,35312 ,35312 ,35630 ,35630
	 ,35630 ,35630 ,35630 ,35312 ,35312 ,35312 ,35312 ,35312 ,35630 ,35630
	 ,35630 ,35630 ,35312 ,34994 ,34676 ,34040 ,33403 ,32449 ,31813 ,31176
	 ,30540 ,29904 ,29586 ,28949 ,28313 ,27677 ,27041 ,26404 ,25768 ,25132
	 ,24814 ,24496 ,24177 ,23859 ,23541 ,23223 ,23223 ,22905 ,22587 ,22269
	 ,22269 ,21951 ,21951 ,21951 ,21632 ,21632 ,21632 ,21314 ,20996 ,20678
	 ,20042 ,19724 ,19405 ,19087 ,19087 ,19087 ,19405 ,19724 ,20042 ,20360
	 ,20360 ,20360 ,20042 ,19724 ,19405 ,19087 ,18769 ,18769 ,18769 ,18769
	 ,19087 ,19087 ,19087 ,19087 ,19087 ,19087 ,19087 ,18769 ,18769 ,18769
	 ,18769 ,18769 ,18769 ,18769 ,18769 ,18451 ,18451 ,18451 ,18451 ,18133
	 ,18133 ,18133 ,18133 ,18133 ,18133 ,17815 ,17815 ,17815 ,17497 ,17497
	 ,17497 ,17497 ,17497 ,17497 ,17497 ,17497 ,17179 ,17179 ,16860 ,16860
	 ,16542 ,16224 ,16224 ,15906 ,15906 ,16224 ,16224 ,16224 ,16542 ,16542
	 ,16542 ,16542 ,16224 ,15906 ,15588 ,15270 ,14952 ,14634 ,14634 ,14315
	 ,14315 ,14315 ,14634 ,14634 ,14634 ,14634 ,14634 ,14634 ,14315 ,14315
	 ,14315 ,13997 ,13997 ,13679 ,13679 ,13679 ,13679 ,13679 ,13679 ,13997
	 ,13997 ,13997 ,13997 ,13997 ,13679 ,13679 ,13679 ,13361 ,13043 ,13043
	 ,12725 ,12407 ,12088 ,11770 ,11770 ,11770 ,12088 ,12407 ,12725 ,13043
	 ,13361 ,13361 ,13361 ,13043 ,12407 ,11770 ,11134 ,10816 ,10498 ,10180
	 ,10498 ,10816 ,11134 ,11770 ,12088 ,12088 ,12088 ,12088 ,11770 ,11452
	 ,11134 ,10816 ,10498 ,10180 ,9862 ,9862 ,9543 ,9543 ,9543 ,9543
	 ,9543 ,9543 ,9543 ,9862 ,10180 ,10498 ,10498 ,10816 ,10816 ,10498
	 ,10498 ,10498 ,10498 ,10498 ,10498 ,10816 ,11134 ,11452 ,11770 ,12088
	 ,12407 ,12407 ,12088 ,11770 ,11452 ,11134 ,10816 ,10498 ,10498 ,10816
	 ,11134 ,11452 ,12088 ,13043 ,13679 ,13997 ,14634 ,14634 ,14634 ,14315
	 ,13997 ,13679 ,13043 ,12725 ,12407 ,12088 ,12088 ,12088 ,12088 ,11770
	 ,11770 ,11452 ,11134 ,10816 ,10180 ,9543 ,9225 ,8589 ,8271 ,8271
	 ,7953 ,7953 ,7953 ,7953 ,7953 ,7953 ,8271 ,8271 ,8271 ,8589
	 ,8589 ,8589 ,8271 ,8271 ,7953 ,7635 ,6998 ,6680 ,6680 ,6680
	 ,6680 ,6680 ,6998 ,7317 ,7635 ,7953 ,7953 ,7953 ,7953 ,7635
	 ,7317 ,6998 ,6680 ,6680 ,6362 ,6044 ,6044 ,5726 ,5726 ,5726
	 ,6044 ,6680 ,7635 ,9543 ,12088 ,15270 ,19405 ,24177 ,29268 ,34358
	 ,39130 ,42947 ,45174 ,46129 ,45174 ,42311 ,37857 ,32449 ,26086 ,20042
	 ,13997 ,9225 ,5408 ,3181 ,1908 ,1908 ,2545 ,3817 ,5090 ,6044
	 ,6998 ,7635 ,7953 ,8271 ,8589 ,8589 ,8589 ,8907 ,8907 ,8907
	 ,8907 ,8907 ,8589 ,8589 ,8271 ,8271 ,8271 ,8271 ,8589 ,9225
	 ,9543 ,10180 ,10498 ,10816 ,11134 ,11134 ,10816 ,10816 ,10498 ,10180
	 ,9862 ,9862 ,10180 ,10498 ,10816 ,11134 ,11770 ,12088 ,12407 ,12407
	 ,12407 ,12088 ,11770 ,11452 ,11134 ,10816 ,10816 ,10816 ,10816 ,11134
	 ,11452 ,11770 ,11770 ,12088 ,12088 ,12088 ,12088 ,12407 ,12725 ,12725
	 ,13361 ,13679 ,13997 ,14315 ,14634 ,14634 ,14952 ,14952 ,15270 ,15588
	 ,15906 ,16224 ,16542 ,16860 ,17179 ,17497 ,17497 ,17815 ,17815 ,18451
	 ,18769 ,19405 ,20360 ,21314 ,21951 ,22587 ,23223 ,23541 ,23541 ,23541
	 ,23223 ,23223 ,23223 ,23223 ,23541 ,23859 ,24177 ,24496 ,24496 ,24177
	 ,23859 ,23541 ,23223 ,22905 ,22905 ,22587 ,22587 ,22587 ,22587 ,22269
	 ,21632 ,20996 ,20042 ,19087 ,18133 ,17179 ,16542 ,15906 ,15270 ,14952
	 ,14634 ,14315 ,13997 ,13679 ,13043 ,12725 ,12407 ,12088 ,11452 ,11134
	 ,10816 ,10180 ,9862 ,9543 ,9225 ,9225 ,9225 ,9225 ,9225 ,9543
	 ,9543 ,9543 ,9225 ,9225 ,8907 ,8589 ,8271 ,8271 ,7953 ,8271
	 ,8271 ,8589 ,9225 ,9543 ,9862 ,9862 ,9862 ,9543 ,9543 ,9225
	 ,8907 ,8589 ,8589 ,8907 ,9225 ,9543 ,9862 ,10498 ,10816 ,10816
	 ,10816 ,10498 ,9862 ,9543 ,8907 ,8589 ,8271 ,8271 ,8271 ,8589
	 ,9225 ,9543 ,10180 ,10498 ,10816 ,10816 ,10816 ,10498 ,10498 ,10498
	 ,10180 ,10180 ,10180 ,9862 ,9862 ,9862 ,9862 ,9862 ,9862 ,9862
	 ,9862 ,10180 ,10498 ,10816 ,10816 ,11134 ,11452 ,11452 ,11452 ,11452
	 ,11452 ,11452 ,11452 ,11452 ,11452 ,11770 ,11770 ,11770 ,11452 ,11452
	 ,11452 ,11134 ,11134 ,10816 ,10816 ,10498 ,10180 ,10180 ,9862 ,9543
	 ,9543 ,9225 ,9225 ,9225 ,9225 ,9543 ,9543 ,9862 ,9862 ,9862
	 ,9862 ,10180 ,10180 ,10180 ,10498 ,10498 ,10816 ,10816 ,10816 ,10816
	 ,10498 ,10498 ,10180 ,9862 ,9862 ,9862 ,9862 ,9862 ,9862 ,9862
	 ,10180 ,10180 ,10498 ,10498 ,10498 ,10498 ,10498 ,10498 ,10498 ,10180
	 ,10180 ,10180 ,10180 ,10180 ,10498 ,10498 ,10498 ,10498 ,10498 ,10498
	 ,10498 ,10180 ,10180 ,10180 ,9862 ,10180 ,10180 ,10180 ,10180 ,10180
	 ,10180 ,10180 ,10180 ,9862 ,9862 ,9862 ,9862 ,9862 ,10180 ,10180
	 ,10498 ,10816 ,10816 ,11134 ,11452 ,11770 ,11770 ,12088 ,12088 ,12088
	 ,12088 ,12407 ,12407 ,12407 ,12407 ,12725 ,13043 ,13361 ,13679 ,14315
	 ,14634 ,15270 ,15588 ,15906 ,15906 ,16224 ,15906 ,15588 ,15270 ,14634
	 ,13997 ,13361 ,12725 ,12407 ,12088 ,12088 ,12088 ,12088 ,12088 ,12088
	 ,11770 ,11452 ,11134 ,10816 ,10180 ,9862 ,9862 ,9862 ,9862 ,10180
	 ,10180 ,10498 ,10498 ,10180 ,10180 ,9862 ,9862 ,9543 ,9543 ,9862
	 ,9862 ,10180 ,10180 ,10180 ,10180 ,10180 ,10180 ,9862 ,9862 ,9862
	 ,9862 ,9862 ,9862 ,9862 ,9543 ,9225 ,8907 ,8589 ,8271 ,8271
	 ,8271 ,8271 ,8271 ,8271 ,8589 ,8907 ,9543 ,11134 ,13361 ,16542
	 ,20678 ,26086 ,31813 ,37857 ,43902 ,48674 ,52491 ,54082 ,53764 ,51537
	 ,47401 ,41357 ,34676 ,27359 ,20360 ,14315 ,9225 ,5726 ,3817 ,3181
	 ,3817 ,5090 ,6680 ,8271 ,9862 ,11134 ,11770 ,12088 ,11770 ,11770
	 ,11452 ,11134 ,11134 ,11134 ,11134 ,11452 ,11770 ,11770 ,11770 ,11770
	 ,11452 ,11134 ,11134 ,11134 ,11134 ,11134 ,11452 ,11770 ,12088 ,12407
	 ,12407 ,12407 ,12407 ,12407 ,12407 ,12725 ,12725 ,13043 ,13361 ,13679
	 ,13997 ,14315 ,14315 ,14634 ,14634 ,14634 ,14315 ,14315 ,14315 ,14315
	 ,14315 ,14634 ,14634 ,14634 ,14952 ,14952 ,14952 ,14952 ,15270 ,15270
	 ,15270 ,15270 ,15270 ,15588 ,15906 ,16224 ,16860 ,17179 ,17815 ,18133
	 ,18451 ,18769 ,19087 ,19087 ,19405 ,19724 ,19724 ,20042 ,20360 ,20678
	 ,20996 ,21314 ,21632 ,21951 ,22269 ,22587 ,22905 ,23541 ,23859 ,24496
	 ,24814 ,25132 ,25768 ,26086 ,26404 ,26723 ,27041 ,27359 ,27677 ,27995
	 ,27995 ,28313 ,28313 ,28313 ,27995 ,27677 ,27359 ,26723 ,26404 ,26404
	 ,26086 ,26086 ,26086 ,26086 ,25768 ,25132 ,24814 ,23859 ,22905 ,21951
	 ,20996 ,20042 ,19087 ,18451 ,17815 ,17497 ,17179 ,16860 ,16542 ,16224
	 ,16224 ,15906 ,15588 ,15270 ,15270 ,14952 ,14634 ,13997 ,13679 ,13043
	 ,12407 ,12088 ,11452 ,11134 ,11134 ,11134 ,11134 ,11770 ,12088 ,12407
	 ,12725 ,12725 ,12725 ,12407 ,12088 ,11770 ,11452 ,11134 ,11134 ,11452
	 ,11452 ,11770 ,12088 ,12407 ,12407 ,12407 ,12088 ,12088 ,11770 ,11770
	 ,11452 ,11452 ,11452 ,11452 ,11770 ,11770 ,11770 ,11770 ,11770 ,12088
	 ,12088 ,12407 ,12725 ,13043 ,13361 ,13361 ,13361 ,13361 ,13361 ,13043
	 ,12725 ,12725 ,12725 ,12725 ,12725 ,13043 ,13043 ,13043 ,13043 ,13043
	 ,13043 ,13043 ,13043 ,12725 ,13043 ,13043 ,13043 ,13043 ,13043 ,13043
	 ,13043 ,13043 ,13043 ,13361 ,13361 ,13679 ,13679 ,13679 ,13361 ,13361
	 ,13043 ,13043 ,13043 ,13043 ,13361 ,13997 ,14634 ,15270 ,16224 ,16860
	 ,17815 ,18451 ,19087 ,19405 ,20042 ,20360 ,20360 ,20678 ,20678 ,20678
	 ,20360 ,20360 ,20042 ,20042 ,19724 ,19724 ,20042 ,20042 ,20042 ,20042
	 ,20360 ,20042 ,20042 ,20042 ,19724 ,19724 ,19724 ,19724 ,20042 ,20042
	 ,20360 ,20678 ,20996 ,21314 ,21632 ,21632 ,21951 ,21632 ,21632 ,21314
	 ,21314 ,20996 ,20996 ,20996 ,20996 ,20996 ,20996 ,20996 ,20996 ,20996
	 ,20996 ,20996 ,20996 ,20678 ,20678 ,20678 ,20678 ,20678 ,20678 ,20360
	 ,20360 ,20042 ,19724 ,19405 ,19405 ,19405 ,19405 ,19405 ,19724 ,20042
	 ,20360 ,20678 ,20678 ,20678 ,20678 ,20678 ,20678 ,20360 ,20678 ,20678
	 ,20678 ,20996 ,21314 ,21314 ,21632 ,21632 ,21951 ,21951 ,22269 ,22587
	 ,22905 ,23223 ,23541 ,23541 ,23859 ,23859 ,23541 ,23541 ,23223 ,22905
	 ,22905 ,22587 ,22269 ,21951 ,21632 ,20996 ,20678 ,20042 ,19405 ,18769
	 ,18133 ,17815 ,17497 ,17497 ,17179 ,17179 ,16860 ,16542 ,16542 ,16224
	 ,15906 ,15588 ,15270 ,15270 ,15270 ,14952 ,14952 ,14634 ,14634 ,14634
	 ,14315 ,14315 ,13997 ,13997 ,13997 ,13997 ,13997 ,13997 ,13997 ,13997
	 ,14315 ,14315 ,14315 ,14634 ,14634 ,14634 ,14315 ,13997 ,13361 ,12725
	 ,12088 ,11452 ,10816 ,10498 ,10498 ,10816 ,11770 ,13361 ,15588 ,18769
	 ,22905 ,27677 ,33403 ,39448 ,45492 ,50900 ,55036 ,57899 ,58854 ,57581
	 ,54400 ,48992 ,42311 ,34676 ,27041 ,20042 ,13679 ,9225 ,6044 ,4771
	 ,4453 ,5408 ,6998 ,8589 ,10180 ,11452 ,12088 ,12407 ,12407 ,12407
	 ,12088 ,12088 ,12088 ,12407 ,12407 ,12725 ,12725 ,13043 ,13043 ,12725
	 ,12725 ,12725 ,12725 ,13043 ,13043 ,13361 ,13361 ,13679 ,13679 ,13679
	 ,13679 ,13361 ,13361 ,13043 ,13043 ,13043 ,13043 ,13043 ,13043 ,13043
	 ,13043 ,13043 ,13043 ,13361 ,13361 ,13361 ,13679 ,13679 ,13997 ,13997
	 ,13997 ,13997 ,13997 ,14315 ,14315 ,14315 ,14315 ,14315 ,14315 ,14634
	 ,14952 ,14952 ,15270 ,15588 ,15906 ,16224 ,16224 ,16224 ,16224 ,16224
	 ,16224 ,15906 ,15906 ,16224 ,16542 ,16860 ,17497 ,18133 ,18769 ,19405
	 ,19724 ,20042 ,20360 ,20360 ,20360 ,20678 ,20678 ,20996 ,21314 ,21951
	 ,22587 ,23223 ,23859 ,24177 ,24814 ,24814 ,25132 ,25132 ,25450 ,25450
	 ,25450 ,25450 ,25450 ,25132 ,25132 ,24814 ,24177 ,23859 ,23541 ,22905
	 ,22905 ,22587 ,22269 ,21951 ,21632 ,20996 ,20678 ,19724 ,19087 ,18451
	 ,17815 ,17179 ,16860 ,16542 ,16224 ,16224 ,15906 ,15588 ,14952 ,14315
	 ,13679 ,12725 ,12088 ,11134 ,10816 ,10180 ,9862 ,9862 ,9862 ,9543
	 ,9543 ,9543 ,9543 ,9225 ,9225 ,8907 ,8589 ,8589 ,8271 ,7953
	 ,7953 ,7953 ,8271 ,8589 ,8907 ,8907 ,9225 ,9543 ,9862 ,10180
	 ,10180 ,10180 ,10498 ,10498 ,10498 ,10498 ,10180 ,10180 ,9862 ,9543
	 ,9543 ,9225 ,8907 ,8907 ,8907 ,8907 ,9225 ,9543 ,9543 ,9862
	 ,9862 ,10180 ,10180 ,10180 ,9862 ,9862 ,9862 ,9543 ,9543 ,9225
	 ,9225 ,9225 ,9225 ,9225 ,9543 ,9543 ,9862 ,9862 ,10180 ,10180
	 ,10180 ,10180 ,10180 ,9862 ,9862 ,9543 ,9225 ,8907 ,8907 ,8589
	 ,8589 ,8907 ,8907 ,8907 ,9225 ,9225 ,8907 ,8907 ,8589 ,8589
	 ,8271 ,7953 ,7953 ,7953 ,7953 ,8271 ,8589 ,8589 ,8907 ,8907
	 ,9225 ,9225 ,9225 ,9225 ,8907 ,8907 ,8907 ,8907 ,8907 ,9225
	 ,9225 ,9225 ,9225 ,9225 ,8907 ,8589 ,8271 ,7953 ,7635 ,7635
	 ,7635 ,7953 ,7953 ,8271 ,8589 ,8589 ,8589 ,8271 ,8271 ,7953
	 ,7635 ,7635 ,7317 ,7317 ,7317 ,7635 ,7635 ,7635 ,7635 ,7635
	 ,7635 ,7953 ,7953 ,7953 ,8271 ,8589 ,8907 ,9225 ,9543 ,9862
	 ,10180 ,10498 ,10816 ,10816 ,11134 ,11134 ,11134 ,11134 ,11134 ,11134
	 ,11134 ,11452 ,11770 ,12088 ,12088 ,12407 ,12407 ,12407 ,12088 ,11770
	 ,11134 ,10816 ,10498 ,9862 ,9543 ,9225 ,8907 ,8589 ,8271 ,7953
	 ,7953 ,7953 ,7953 ,8271 ,8589 ,8907 ,9225 ,9225 ,9543 ,9543
	 ,9225 ,9225 ,8907 ,8589 ,8271 ,7953 ,7953 ,7635 ,7635 ,7635
	 ,7317 ,7317 ,6998 ,6998 ,6680 ,6680 ,6680 ,6998 ,6998 ,7317
	 ,7317 ,7317 ,7317 ,7317 ,7317 ,7317 ,7317 ,6998 ,6998 ,6680
	 ,6362 ,6044 ,5408 ,5090 ,4771 ,5090 ,5726 ,7635 ,10816 ,14952
	 ,20042 ,26086 ,32131 ,38175 ,43265 ,47083 ,49310 ,49946 ,48355 ,45174
	 ,40402 ,34676 ,27995 ,21632 ,15270 ,9862 ,5408 ,2226 ,636 ,0
	 ,318 ,1590 ,3181 ,4771 ,6044 ,7317 ,7953 ,8271 ,8589 ,8589
	 ,8589 ,8589 ,8589 ,8907 ,8907 ,9225 ,9543 ,9862 ,10180 ,10180
	 ,10180 ,10180 ,10180 ,10180 ,10180 ,10180 ,10180 ,10180 ,10180 ,10498
	 ,10498 ,10498 ,10180 ,10180 ,10180 ,10180 ,10498 ,10498 ,10816 ,11134
	 ,11452 ,11770 ,12088 ,12088 ,12088 ,12088 ,12088 ,11770 ,11770 ,11770
	 ,12088 ,12088 ,12407 ,12407 ,12725 ,12725 ,12725 ,12725 ,12725 ,13043
	 ,13361 ,13679 ,13997 ,14634 ,15270 ,15588 ,15906 ,16224 ,16542 ,16542
	 ,16542 ,16542 ,16542 ,16860 ,17179 ,17497 ,17815 ,18133 ,18451 ,18451
	 ,18769 ,18769 ,19087 ,19405 ,20042 ,20678 ,21314 ,21951 ,22587 ,23223
	 ,23541 ,23859 ,24177 ,24177 ,24496 ,24814 ,24814 ,25132 ,25132 ,25450
	 ,25450 ,25450 ,25132 ,25132 ,25132 ,25132 ,25132 ,25132 ,24814 ,24496
	 ,24177 ,23541 ,22905 ,21951 ,20996 ,20042 ,19405 ,18769 ,18451 ,18133
	 ,17815 ,17179 ,16860 ,16224 ,15588 ,14634 ,13997 ,13361 ,12725 ,12088
	 ,11770 ,11452 ,11134 ,10498 ,10180 ,9862 ,9543 ,9543 ,9543 ,9543
	 ,9543 ,9543 ,9862 ,9543 ,9543 ,8907 ,8589 ,7953 ,7635 ,7317
	 ,7317 ,7317 ,7635 ,7953 ,8589 ,8907 ,9543 ,9862 ,10180 ,10498
	 ,10498 ,10498 ,10180 ,10180 ,9862 ,9862 ,9862 ,9543 ,9543 ,9862
	 ,9862 ,9862 ,10180 ,10180 ,10498 ,10498 ,10498 ,10180 ,10180 ,9862
	 ,9543 ,9543 ,9225 ,9225 ,9225 ,9225 ,9543 ,9543 ,9543 ,9543
	 ,9543 ,9543 ,9543 ,9543 ,9862 ,10180 ,10498 ,10816 ,11134 ,11134
	 ,11452 ,11452 ,11134 ,10816 ,10816 ,10498 ,10180 ,10180 ,10180 ,10498
	 ,10498 ,10498 ,10498 ,10180 ,10180 ,9862 ,9543 ,9225 ,9225 ,9225
	 ,9543 ,9862 ,10180 ,10498 ,10498 ,10816 ,10498 ,10498 ,10180 ,10180
	 ,10180 ,10180 ,10180 ,10180 ,10498 ,10498 ,10498 ,10498 ,10498 ,10498
	 ,10498 ,10498 ,10498 ,10816 ,10816 ,10816 ,10816 ,10816 ,10498 ,10180
	 ,10180 ,9862 ,9862 ,9862 ,9862 ,9862 ,9862 ,10180 ,10180 ,10498
	 ,10816 ,11134 ,11134 ,11452 ,11452 ,11452 ,11452 ,11452 ,11134 ,11134
	 ,11134 ,11134 ,11452 ,11770 ,12088 ,12725 ,13043 ,13361 ,13679 ,13679
	 ,13361 ,13361 ,13361 ,13361 ,13361 ,13361 ,13361 ,13043 ,12725 ,12088
	 ,11452 ,10816 ,10180 ,9543 ,9225 ,8907 ,8907 ,8907 ,9225 ,9225
	 ,9543 ,9543 ,9862 ,9862 ,9862 ,9862 ,9862 ,9862 ,9862 ,9862
	 ,9543 ,9543 ,9225 ,9225 ,9225 ,9225 ,9862 ,10180 ,11134 ,11770
	 ,12407 ,13043 ,13679 ,14315 ,14634 ,14952 ,14952 ,15270 ,15270 ,15588
	 ,15588 ,15906 ,15906 ,15906 ,16224 ,16224 ,16542 ,16542 ,16542 ,16542
	 ,16542 ,16542 ,16542 ,17179 ,18133 ,19724 ,22269 ,25450 ,29268 ,34040
	 ,38811 ,43583 ,47719 ,51219 ,53446 ,54400 ,53764 ,51855 ,48037 ,43265
	 ,37539 ,31494 ,25768 ,20360 ,16224 ,13043 ,11452 ,10816 ,11452 ,13043
	 ,14952 ,16860 ,18451 ,19724 ,20360 ,20678 ,20360 ,20360 ,20042 ,19724
	 ,19724 ,19724 ,19724 ,19724 ,19724 ,19724 ,19724 ,19724 ,19724 ,19724
	 ,19724 ,20042 ,20360 ,20678 ,20996 ,20996 ,20996 ,20996 ,20678 ,20678
	 ,20360 ,20042 ,20042 ,20360 ,20360 ,20678 ,20996 ,21314 ,21314 ,21314
	 ,21314 ,21314 ,21314 ,21314 ,21314 ,21632 ,21632 ,21951 ,21951 ,21951
	 ,21951 ,21951 ,21951 ,21951 ,21632 ,21951 ,21951 ,22269 ,22587 ,22905
	 ,23223 ,23541 ,23541 ,23541 ,23541 ,23541 ,23541 ,23541 ,23541 ,23859
	 ,23859 ,24177 ,24177 ,24496 ,24496 ,24496 ,24496 ,24814 ,25132 ,25450
	 ,25768 ,26086 ,26723 ,27041 ,27359 ,27677 ,27995 ,27995 ,28313 ,28631
	 ,28949 ,29268 ,29904 ,30222 ,30222 ,30540 ,30540 ,30222 ,29904 ,29586
	 ,29268 ,28949 ,28631 ,28313 ,27995 ,27359 ,27041 ,26404 ,26086 ,25450
	 ,25132 ,25132 ,24814 ,24814 ,24496 ,24177 ,23859 ,23223 ,22587 ,21632
	 ,20996 ,20042 ,19405 ,18769 ,18451 ,18133 ,17815 ,17815 ,17815 ,17497
	 ,17497 ,17179 ,17179 ,16860 ,16860 ,16542 ,16224 ,15906 ,15588 ,14952
	 ,14634 ,13997 ,13679 ,13361 ,13043 ,13043 ,13043 ,13043 ,13361 ,13361
	 ,13679 ,13361 ,13361 ,13361 ,13043 ,12725 ,12725 ,12725 ,12725 ,13043
	 ,13361 ,13679 ,13997 ,13997 ,13997 ,13997 ,13679 ,13043 ,12725 ,12407
	 ,12088 ,12088 ,12407 ,12407 ,13043 ,13361 ,13679 ,13679 ,13997 ,13997
	 ,13679 ,13679 ,13679 ,13679 ,13679 ,13679 ,13997 ,13997 ,13997 ,13997
	 ,13679 ,13361 ,13043 ,13043 ,12725 ,12725 ,12725 ,12725 ,13043 ,13043
	 ,13361 ,13361 ,13361 ,13043 ,13043 ,12725 ,12725 ,12725 ,12725 ,13043
	 ,13043 ,13043 ,13043 ,13043 ,12725 ,12407 ,12088 ,11770 ,11770 ,11770
	 ,11770 ,12088 ,12088 ,12407 ,12725 ,12725 ,12407 ,12407 ,12088 ,11770
	 ,11770 ,11770 ,12088 ,12407 ,12725 ,13043 ,13361 ,13361 ,13043 ,13043
	 ,12407 ,12088 ,11770 ,11452 ,11134 ,11134 ,11452 ,11770 ,12088 ,12407
	 ,12725 ,12725 ,13043 ,12725 ,12725 ,12725 ,12407 ,12407 ,12725 ,12725
	 ,13043 ,13679 ,13997 ,14634 ,14952 ,15270 ,15588 ,15588 ,15588 ,15270
	 ,14952 ,14634 ,14315 ,13997 ,13679 ,13679 ,13679 ,13361 ,13361 ,13361
	 ,13361 ,13361 ,13043 ,12725 ,12725 ,12407 ,12088 ,12088 ,11770 ,11452
	 ,11134 ,11134 ,10816 ,10816 ,10498 ,10498 ,10498 ,10498 ,10498 ,10498
	 ,10180 ,9862 ,9543 ,9543 ,9225 ,9225 ,9225 ,9543 ,9543 ,9862
	 ,10180 ,10180 ,10180 ,10180 ,10180 ,10180 ,10498 ,10498 ,10816 ,11134
	 ,11134 ,11452 ,11134 ,10816 ,10498 ,9862 ,9225 ,8589 ,7953 ,7635
	 ,7635 ,7953 ,8589 ,9543 ,11134 ,13043 ,15906 ,19087 ,23223 ,27677
	 ,32449 ,36903 ,40720 ,43902 ,45492 ,45492 ,43902 ,40720 ,36266 ,30540
	 ,24496 ,18769 ,13361 ,9225 ,6044 ,4135 ,3181 ,3499 ,4135 ,5408
	 ,6680 ,7635 ,8589 ,9225 ,9862 ,9862 ,10180 ,10498 ,10816 ,11134
	 ,11452 ,12088 ,12407 ,12407 ,12725 ,12725 ,12725 ,12407 ,12088 ,12088
	 ,11770 ,11452 ,11452 ,11134 ,10816 ,10816 ,10498 ,10498 ,10816 ,10816
	 ,11134 ,11770 ,12407 ,12725 ,13361 ,13679 ,13679 ,13997 ,13997 ,13679
	 ,13679 ,13361 ,13361 ,13361 ,13361 ,13361 ,13361 ,13361 ,13361 ,13361
	 ,13361 ,13361 ,13679 ,13679 ,13997 ,14315 ,14634 ,15270 ,15588 ,15906
	 ,16224 ,16542 ,16860 ,16860 ,16860 ,16860 ,16860 ,16860 ,16860 ,17179
	 ,17179 ,17179 ,17497 ,17497 ,18133 ,18451 ,19087 ,19724 ,20360 ,20678
	 ,21314 ,21632 ,21951 ,21951 ,22269 ,22269 ,22269 ,22269 ,22269 ,22587
	 ,22905 ,23541 ,23859 ,24177 ,24496 ,24814 ,25132 ,25132 ,25132 ,24814
	 ,24814 ,24496 ,23859 ,23541 ,23223 ,22905 ,22587 ,22269 ,22269 ,21951
	 ,21951 ,21632 ,21314 ,20678 ,20042 ,19087 ,18133 ,17179 ,16224 ,15270
	 ,14634 ,13997 ,13679 ,13361 ,13361 ,13043 ,13043 ,12725 ,12407 ,12088
	 ,11770 ,11770 ,11452 ,11452 ,11452 ,11452 ,11452 ,11770 ,11770 ,12088
	 ,12088 ,12088 ,12088 ,12088 ,11770 ,11770 ,11770 ,11770 ,11770 ,11770
	 ,11770 ,11770 ,11452 ,11134 ,11134 ,10816 ,10498 ,10498 ,10498 ,10816
	 ,10816 ,11134 ,11452 ,11134 ,11134 ,10816 ,10498 ,9862 ,9543 ,9543
	 ,9862 ,10180 ,10498 ,11134 ,11452 ,11770 ,11770 ,11452 ,11134 ,10816
	 ,10498 ,10180 ,10180 ,10498 ,10816 ,11134 ,11452 ,11770 ,11770 ,11770
	 ,11770 ,11452 ,11452 ,11134 ,11134 ,11452 ,11452 ,11452 ,11452 ,11770
	 ,11452 ,11452 ,11452 ,11452 ,11134 ,11134 ,11134 ,10816 ,10816 ,10498
	 ,10180 ,9862 ,9543 ,9543 ,9225 ,9225 ,9543 ,9862 ,10180 ,10498
	 ,10816 ,11134 ,11134 ,11134 ,10816 ,10498 ,10180 ,9862 ,9862 ,9543
	 ,9543 ,9543 ,9862 ,9862 ,10180 ,10180 ,10180 ,10180 ,10180 ,10180
	 ,10180 ,10180 ,10180 ,10180 ,10498 ,10498 ,10816 ,10816 ,11134 ,11134
	 ,11134 ,11452 ,11452 ,11452 ,11770 ,12088 ,12088 ,12407 ,12407 ,12407
	 ,12407 ,12407 ,12088 ,12088 ,12088 ,12088 ,12407 ,12407 ,12725 ,12725
	 ,13043 ,13043 ,13043 ,13043 ,13043 ,13043 ,13043 ,12725 ,12725 ,12725
	 ,12407 ,12088 ,11770 ,11452 ,11134 ,10498 ,9862 ,9225 ,8907 ,8589
	 ,8271 ,7953 ,7953 ,8271 ,8271 ,8589 ,8589 ,8907 ,8589 ,8589
	 ,8271 ,7953 ,7635 ,7317 ,7317 ,6998 ,6998 ,7317 ,7317 ,7317
	 ,7635 ,7635 ,7635 ,7635 ,7953 ,7953 ,7953 ,7953 ,7953 ,7953
	 ,7953 ,7953 ,7953 ,8271 ,8589 ,8589 ,8907 ,8907 ,8589 ,8271
	 ,7635 ,6680 ,6044 ,5408 ,5090 ,5408 ,6680 ,8589 ,11452 ,15270
	 ,19724 ,24814 ,30222 ,35630 ,40720 ,44856 ,48355 ,49946 ,49946 ,48037
	 ,44220 ,38493 ,31813 ,24496 ,17179 ,10816 ,6044 ,2545 ,954 ,954
	 ,1908 ,3499 ,5408 ,6998 ,8271 ,8907 ,9225 ,9225 ,9225 ,9225
	 ,9543 ,9862 ,10180 ,10498 ,10498 ,10498 ,10180 ,9862 ,9862 ,9543
	 ,9543 ,9543 ,9862 ,9862 ,10180 ,9862 ,9862 ,9543 ,8907 ,8589
	 ,8589 ,8589 ,8589 ,9225 ,9543 ,10180 ,10498 ,11134 ,11452 ,11452
	 ,11770 ,11770 ,12088 ,12088 ,12407 ,12407 ,12407 ,12725 ,12407 ,12407
	 ,12407 ,12407 ,12407 ,12407 ,12407 ,12725 ,13043 ,13043 ,13361 ,13679
	 ,13679 ,13679 ,13679 ,13997 ,13997 ,13997 ,14315 ,14315 ,14634 ,14952
	 ,15270 ,15588 ,15906 ,16224 ,16542 ,17179 ,17815 ,18133 ,19087 ,19724
	 ,20360 ,20678 ,21314 ,21314 ,21632 ,21632 ,21632 ,21632 ,21632 ,21951
	 ,21951 ,22587 ,22905 ,23541 ,23859 ,24177 ,24496 ,24814 ,24814 ,24496
	 ,24496 ,24177 ,24177 ,24177 ,24177 ,24496 ,24814 ,25132 ,25450 ,25768
	 ,26086 ,26086 ,26086 ,26086 ,25768 ,25450 ,24814 ,24496 ,24177 ,23859
	 ,23223 ,22905 ,22587 ,22269 ,22269 ,21951 ,21951 ,21632 ,21632 ,21314
	 ,20996 ,20678 ,20360 ,20042 ,19405 ,19087 ,19087 ,18769 ,18769 ,18769
	 ,18769 ,18769 ,18769 ,18769 ,18451 ,18451 ,18133 ,18133 ,18133 ,18133
	 ,18133 ,18133 ,18133 ,17815 ,17815 ,17497 ,17179 ,17179 ,16860 ,16860
	 ,16860 ,16860 ,17179 ,17179 ,17497 ,17497 ,17815 ,17815 ,17497 ,17497
	 ,17497 ,17179 ,17497 ,17497 ,17815 ,17815 ,18133 ,18133 ,18451 ,18451
	 ,18451 ,18133 ,18133 ,18133 ,18451 ,18451 ,18769 ,18769 ,18769 ,19087
	 ,19087 ,19087 ,19087 ,19087 ,18769 ,18769 ,18769 ,18769 ,18451 ,18451
	 ,18133 ,17815 ,17815 ,17497 ,17497 ,17497 ,17179 ,17179 ,17179 ,17179
	 ,16860 ,16860 ,16542 ,16542 ,16542 ,16542 ,16542 ,16542 ,16542 ,16224
	 ,15906 ,15588 ,15270 ,14634 ,14315 ,14315 ,14315 ,14315 ,14315 ,14634
	 ,14952 ,14952 ,14952 ,14952 ,14952 ,14634 ,14634 ,14634 ,14315 ,14315
	 ,13997 ,13997 ,13997 ,13679 ,13679 ,13361 ,13361 ,13043 ,13043 ,13043
	 ,12725 ,12725 ,12725 ,12725 ,12725 ,12725 ,12725 ,12725 ,13043 ,13361
	 ,13361 ,13679 ,13997 ,13997 ,14315 ,14315 ,13997 ,13997 ,13679 ,13361
	 ,13043 ,12725 ,12407 ,12088 ,12088 ,12088 ,12407 ,12725 ,13043 ,13361
	 ,13679 ,13997 ,14315 ,14634 ,14952 ,15270 ,15270 ,15588 ,15588 ,15588
	 ,15270 ,14952 ,14315 ,13679 ,12725 ,11770 ,11134 ,10180 ,9862 ,9225
	 ,9225 ,8907 ,9225 ,9225 ,9543 ,9543 ,9543 ,9543 ,9543 ,9543
	 ,9543 ,9543 ,9543 ,9543 ,9543 ,9225 ,9225 ,9225 ,8907 ,8907
	 ,8589 ,8589 ,8589 ,8589 ,8589 ,8589 ,8907 ,8907 ,8907 ,8907
	 ,8907 ,8907 ,8907 ,8907 ,8589 ,8589 ,8271 ,8271 ,7953 ,7953
	 ,7635 ,7317 ,6998 ,6680 ,6362 ,6362 ,6680 ,7635 ,9225 ,12088
	 ,15588 ,20042 ,25450 ,31494 ,37539 ,43265 ,48355 ,52173 ,54400 ,54400
	 ,52491 ,48674 ,42947 ,35948 ,28631 ,21314 ,14315 ,8907 ,5090 ,2863
	 ,1908 ,2545 ,3817 ,5408 ,7317 ,8589 ,9543 ,10180 ,10498 ,10816
	 ,10816 ,10816 ,11134 ,11452 ,11770 ,11770 ,12088 ,12088 ,11770 ,11452
	 ,11134 ,11134 ,11134 ,11134 ,11134 ,11452 ,11770 ,12088 ,12088 ,12088
	 ,12088 ,12088 ,12088 ,11770 ,11770 ,11452 ,11452 ,11770 ,11770 ,11770
	 ,12088 ,12407 ,12407 ,12725 ,13043 ,13043 ,13361 ,13361 ,13679 ,13679
	 ,13361 ,13361 ,13043 ,13043 ,13043 ,13043 ,13361 ,13679 ,14315 ,14952
	 ,15270 ,15906 ,16224 ,16224 ,16224 ,16224 ,16224 ,16224 ,16224 ,16542
	 ,16860 ,17179 ,17497 ,17815 ,18133 ,18451 ,18769 ,19087 ,19724 ,20042
	 ,20678 ,21314 ,21951 ,22587 ,22905 ,23223 ,23223 ,23223 ,23223 ,23223
	 ,23223 ,23223 ,23541 ,23859 ,24496 ,24814 ,25132 ,25132 ,25450 ,25132
	 ,25132 ,25132 ,24814 ,24814 ,24814 ,25132 ,25132 ,25132 ,25450 ,25132
	 ,24814 ,24496 ,23859 ,23223 ,22269 ,21632 ,20996 ,20678 ,20042 ,19724
	 ,19724 ,19405 ,19087 ,18769 ,18451 ,17815 ,17179 ,16542 ,16224 ,15588
	 ,15270 ,14952 ,14634 ,14315 ,13997 ,13679 ,13361 ,13043 ,12725 ,12725
	 ,12725 ,12725 ,12725 ,13043 ,13043 ,13043 ,13043 ,12725 ,12725 ,12407
	 ,12088 ,12088 ,11770 ,11770 ,11770 ,11770 ,11452 ,11452 ,11452 ,11134
	 ,11134 ,10816 ,10816 ,10816 ,10816 ,10816 ,10816 ,10498 ,10498 ,10498
	 ,10498 ,10498 ,10498 ,10498 ,10816 ,11134 ,11452 ,11770 ,12088 ,12407
	 ,12407 ,12725 ,12725 ,12725 ,12725 ,12725 ,12725 ,12407 ,12407 ,12088
	 ,11770 ,11452 ,11452 ,11134 ,10816 ,10816 ,10816 ,10816 ,11134 ,11452
	 ,11452 ,11770 ,12088 ,12407 ,12407 ,12407 ,12407 ,12407 ,12088 ,11770
	 ,11770 ,11452 ,11452 ,11452 ,11452 ,11452 ,11770 ,11770 ,11770 ,11452
	 ,11452 ,11134 ,10816 ,10498 ,10498 ,10180 ,10180 ,10180 ,10498 ,10816
	 ,11134 ,11452 ,11452 ,11770 ,11770 ,11770 ,11452 ,11134 ,11134 ,10816
	 ,10498 ,10180 ,10180 ,10180 ,10180 ,10498 ,10498 ,10816 ,10816 ,10816
	 ,10816 ,11134 ,11134 ,11134 ,11134 ,11452 ,11452 ,11452 ,11770 ,11770
	 ,11770 ,11770 ,11770 ,11452 ,11452 ,11452 ,11452 ,11452 ,11452 ,11452
	 ,11770 ,11770 ,11770 ,11770 ,11770 ,11452 ,11452 ,11452 ,11452 ,11452
	 ,11452 ,11452 ,11770 ,11770 ,12088 ,12088 ,12407 ,12407 ,12407 ,12407
	 ,12407 ,12407 ,12725 ,12725 ,13043 ,13361 ,13679 ,13997 ,14315 ,14634
	 ,14952 ,14952 ,14952 ,14952 ,14952 ,14952 ,14634 ,14634 ,14315 ,13997
	 ,13997 ,13679 ,13361 ,13043 ,12725 ,12088 ,11770 ,11452 ,11134 ,11134
	 ,11134 ,11134 ,11134 ,11134 ,11134 ,11134 ,10816 ,10816 ,10816 ,10498
	 ,10498 ,10498 ,10180 ,10180 ,10180 ,10180 ,10180 ,10180 ,10180 ,9862
	 ,10180 ,10180 ,10180 ,10498 ,10498 ,10498 ,10498 ,10180 ,9862 ,9543
	 ,9225 ,8907 ,8589 ,8589 ,8589 ,8907 ,9225 ,9543 ,9543 ,9225
	 ,8907 ,8271 ,7635 ,6998 ,7317 ,7953 ,9225 ,11770 ,14952 ,19087
	 ,23859 ,29268 ,34676 ,40084 ,44856 ,48992 ,51855 ,53127 ,52491 ,49946
	 ,45810 ,40084 ,33403 ,26086 ,19087 ,12725 ,7953 ,4771 ,3181 ,2863
	 ,3817 ,5408 ,7317 ,8907 ,9862 ,10498 ,10816 ,10498 ,10498 ,10498
	 ,10498 ,10816 ,11452 ,11770 ,12407 ,12407 ,12407 ,12088 ,11770 ,11452
	 ,11134 ,10816 ,11134 ,11134 ,11770 ,12088 ,12407 ,12725 ,13043 ,13043
	 ,13043 ,13043 ,13043 ,13043 ,13043 ,13043 ,13043 ,13043 ,13043 ,13361
	 ,13361 ,13361 ,13679 ,13679 ,13997 ,13997 ,14315 ,14315 ,14315 ,13997
	 ,13997 ,13997 ,14315 ,14315 ,14952 ,15270 ,15906 ,16224 ,16542 ,16860
	 ,16860 ,16860 ,16542 ,16542 ,16224 ,16542 ,16860 ,17179 ,17815 ,18133
	 ,18769 ,19087 ,19087 ,19405 ,19087 ,19087 ,19087 ,19405 ,19724 ,20042
	 ,20678 ,21314 ,21632 ,22269 ,22587 ,22905 ,23223 ,23223 ,23541 ,23541
	 ,23859 ,24177 ,24496 ,24814 ,25132 ,25450 ,26086 ,26404 ,26723 ,27041
	 ,27359 ,27359 ,27041 ,26723 ,26404 ,25768 ,25450 ,24814 ,24496 ,24177
	 ,23859 ,23541 ,23223 ,22587 ,21951 ,20996 ,20042 ,19087 ,18451 ,17815
	 ,17497 ,17179 ,17179 ,17179 ,17179 ,16860 ,16542 ,16224 ,15588 ,14634
	 ,13997 ,13361 ,12725 ,12725 ,12407 ,12407 ,12407 ,12407 ,12407 ,12407
	 ,12088 ,11770 ,11770 ,11452 ,11134 ,10816 ,10498 ,10180 ,10180 ,9862
	 ,9543 ,9543 ,9543 ,9862 ,9862 ,10180 ,10498 ,10816 ,11134 ,11134
	 ,11134 ,11134 ,11134 ,10816 ,10816 ,10816 ,10816 ,10816 ,11134 ,11134
	 ,11134 ,11134 ,10816 ,10816 ,10816 ,10498 ,10498 ,10816 ,10816 ,10816
	 ,11134 ,11134 ,11134 ,11134 ,11134 ,11134 ,11134 ,11134 ,11134 ,11134
	 ,11452 ,11452 ,11770 ,11770 ,11770 ,12088 ,11770 ,11770 ,11770 ,11452
	 ,11452 ,11452 ,11452 ,11452 ,11770 ,11770 ,12088 ,12088 ,12088 ,12088
	 ,11770 ,11770 ,11452 ,11134 ,10816 ,10816 ,10816 ,10816 ,11134 ,11452
	 ,11770 ,12088 ,12407 ,12407 ,12088 ,11770 ,11452 ,11134 ,10498 ,10498
	 ,10180 ,10498 ,10816 ,11134 ,12088 ,12725 ,13679 ,14315 ,14952 ,15588
	 ,16224 ,16542 ,16860 ,16860 ,17179 ,17179 ,17179 ,17497 ,17497 ,17497
	 ,17815 ,17815 ,17815 ,17497 ,17497 ,17497 ,17497 ,17497 ,17497 ,17497
	 ,17497 ,17815 ,18133 ,18133 ,18451 ,18451 ,18451 ,18451 ,18133 ,18133
	 ,17815 ,17497 ,17497 ,17179 ,17179 ,17179 ,17497 ,17815 ,18133 ,18451
	 ,19087 ,19405 ,19724 ,19724 ,19724 ,19724 ,19724 ,19405 ,19405 ,19405
	 ,19405 ,19405 ,19724 ,20042 ,20360 ,20678 ,20996 ,20996 ,21314 ,21314
	 ,21314 ,21314 ,21314 ,21314 ,21314 ,20996 ,20996 ,20678 ,20360 ,20042
	 ,19405 ,18769 ,18133 ,17497 ,16860 ,16224 ,15906 ,15906 ,15588 ,15588
	 ,15906 ,15906 ,16224 ,16224 ,16224 ,16224 ,16224 ,15906 ,15906 ,15906
	 ,15588 ,15270 ,14952 ,14634 ,14315 ,13997 ,13679 ,13679 ,13361 ,13361
	 ,13043 ,13043 ,13043 ,13361 ,13361 ,13361 ,13361 ,13679 ,13679 ,13679
	 ,13679 ,13679 ,13679 ,13679 ,13679 ,13679 ,13361 ,13043 ,12407 ,12088
	 ,11452 ,11134 ,11452 ,12088 ,13679 ,15906 ,19405 ,23541 ,28631 ,34040
	 ,39766 ,45492 ,50264 ,54082 ,55991 ,56309 ,54400 ,50900 ,45492 ,38811
	 ,31494 ,24177 ,17815 ,12407 ,8271 ,6044 ,5090 ,5408 ,6680 ,7953
	 ,9543 ,10816 ,11452 ,12088 ,12088 ,12088 ,12088 ,12088 ,12407 ,12725
	 ,13043 ,13361 ,13361 ,13361 ,13043 ,12725 ,12407 ,12088 ,12088 ,12088
	 ,12407 ,12725 ,13043 ,13361 ,13361 ,13361 ,13043 ,12725 ,12407 ,12407
	 ,12407 ,12407 ,12725 ,13361 ,13679 ,14315 ,14634 ,14634 ,14634 ,14634
	 ,14634 ,14315 ,14315 ,14315 ,14315 ,14315 ,14634 ,14634 ,14952 ,15270
	 ,15270 ,15270 ,15270 ,14952 ,14952 ,14634 ,14634 ,14634 ,14634 ,14634
	 ,14952 ,15270 ,15270 ,15270 ,15588 ,15588 ,15588 ,15906 ,16224 ,16542
	 ,17179 ,17815 ,18451 ,19087 ,19724 ,20360 ,20678 ,21314 ,21632 ,21951
	 ,22269 ,22587 ,22905 ,23223 ,23541 ,23541 ,23859 ,23859 ,23859 ,23859
	 ,24177 ,24177 ,24496 ,24814 ,25132 ,25450 ,25768 ,25768 ,26086 ,26086
	 ,25768 ,25768 ,25450 ,25132 ,24814 ,24177 ,23859 ,23541 ,22905 ,22587
	 ,21951 ,20996 ,20360 ,19724 ,18769 ,18133 ,17497 ,17179 ,16542 ,16224
	 ,15906 ,15588 ,15270 ,14634 ,13997 ,13679 ,13043 ,12725 ,12407 ,12088
	 ,11770 ,11770 ,11452 ,11452 ,11134 ,10498 ,10180 ,9543 ,9225 ,8907
	 ,8589 ,8589 ,8589 ,8907 ,8907 ,9225 ,9225 ,9225 ,9225 ,9225
	 ,9225 ,8907 ,8907 ,9225 ,9225 ,9543 ,9543 ,9862 ,9862 ,9862
	 ,9862 ,9543 ,9543 ,9543 ,9862 ,9862 ,9862 ,9862 ,9862 ,9862
	 ,9862 ,9543 ,9543 ,9543 ,9543 ,9862 ,10180 ,10498 ,10816 ,11134
	 ,11452 ,11452 ,11452 ,11452 ,11134 ,10816 ,10816 ,10498 ,10498 ,10498
	 ,10816 ,10816 ,11134 ,11134 ,11452 ,11452 ,11452 ,11134 ,11134 ,10816
	 ,10816 ,10498 ,10180 ,10180 ,10180 ,10180 ,10180 ,10180 ,10180 ,10180
	 ,10180 ,10180 ,10180 ,10180 ,9862 ,9862 ,9862 ,9862 ,9862 ,9862
	 ,9862 ,9862 ,9862 ,9862 ,9862 ,9862 ,9543 ,9543 ,9543 ,9225
	 ,9225 ,9225 ,9543 ,9543 ,9862 ,9862 ,10180 ,10180 ,10180 ,10180
	 ,9862 ,9543 ,9543 ,9225 ,9225 ,8907 ,8907 ,9225 ,9225 ,9225
	 ,9225 ,8907 ,8907 ,8589 ,8589 ,8589 ,8589 ,8907 ,8907 ,9543
	 ,9862 ,9862 ,10180 ,9862 ,9862 ,9543 ,9225 ,8907 ,8589 ,8589
	 ,8589 ,8907 ,8907 ,8907 ,9225 ,9225 ,8907 ,8907 ,8907 ,8907
	 ,8907 ,9225 ,9543 ,9862 ,10180 ,10816 ,10816 ,11134 ,11134 ,11134
	 ,10816 ,10816 ,10498 ,10498 ,10498 ,10498 ,10498 ,10498 ,10816 ,11134
	 ,11452 ,11770 ,12088 ,12725 ,13043 ,13361 ,13679 ,13679 ,13679 ,13679
	 ,13361 ,13361 ,13361 ,13361 ,13679 ,13997 ,13997 ,14315 ,14315 ,14315
	 ,13997 ,13361 ,12725 ,12088 ,11452 ,10816 ,10498 ,10180 ,9862 ,10180
	 ,10180 ,10498 ,10498 ,10498 ,10816 ,10498 ,10498 ,10498 ,10498 ,10180
	 ,10180 ,10180 ,10180 ,9862 ,9862 ,9543 ,9543 ,9225 ,9225 ,9225
	 ,9225 ,9225 ,9543 ,9862 ,9862 ,10180 ,10180 ,9862 ,9543 ,9225
	 ,8907 ,8589 ,8271 ,7953 ,7953 ,7953 ,7953 ,7953 ,7953 ,7953
	 ,7635 ,7317 ,7317 ,7635 ,8589 ,10180 ,12725 ,16224 ,20360 ,25450
	 ,30858 ,36266 ,41675 ,46765 ,50582 ,53446 ,54400 ,53764 ,51219 ,46765
	 ,41038 ,34040 ,27041 ,20042 ,13679 ,8907 ,5726 ,4135 ,4135 ,5090
	 ,6680 ,8589 ,10180 ,11452 ,12088 ,12407 ,12088 ,11770 ,11452 ,11452
	 ,11452 ,11452 ,11770 ,11770 ,11770 ,11770 ,11452 ,11134 ,11134 ,11134
	 ,11452 ,12088 ,12725 ,13361 ,13679 ,13679 ,13679 ,13361 ,13043 ,12725
	 ,12407 ,12407 ,12725 ,13043 ,13679 ,14315 ,14952 ,15270 ,15270 ,15270
	 ,14952 ,14952 ,14634 ,14315 ,14315 ,14315 ,14315 ,14315 ,14634 ,14634
	 ,14634 ,14634 ,14952 ,14952 ,15270 ,15270 ,15588 ,15906 ,15906 ,15906
	 ,16224 ,16224 ,16224 ,16224 ,16224 ,16542 ,16860 ,17179 ,17497 ,17815
	 ,18133 ,18451 ,18769 ,18769 ,19087 ,19087 ,19405 ,20042 ,20360 ,20996
	 ,21951 ,22587 ,23541 ,24177 ,24814 ,25132 ,25450 ,25450 ,25450 ,25450
	 ,25450 ,25768 ,26086 ,26404 ,26723 ,27359 ,27677 ,27995 ,28313 ,28313
	 ,28313 ,27995 ,27677 ,27677 ,27677 ,27359 ,27359 ,27041 ,26723 ,26404
	 ,25768 ,25132 ,24177 ,23541 ,22905 ,22269 ,21632 ,21314 ,20996 ,20360
	 ,20042 ,19405 ,18769 ,18133 ,17497 ,16860 ,16542 ,16224 ,15906 ,15906
	 ,15588 ,15588 ,15270 ,14952 ,14315 ,13997 ,13679 ,13679 ,13361 ,13361
	 ,13679 ,13679 ,13679 ,13679 ,13679 ,13361 ,13361 ,13361 ,13361 ,13361
	 ,13361 ,13361 ,13361 ,13679 ,13679 ,13679 ,13679 ,13679 ,13679 ,13679
	 ,13679 ,13679 ,13361 ,13361 ,13043 ,12407 ,12088 ,12088 ,11770 ,12088
	 ,12407 ,12725 ,13361 ,13997 ,14634 ,14952 ,14952 ,14952 ,14634 ,14315
	 ,13997 ,13679 ,13361 ,13679 ,13997 ,14315 ,14952 ,15270 ,15588 ,15906
	 ,15906 ,15588 ,15270 ,14952 ,14315 ,13679 ,13361 ,13043 ,12725 ,12725
	 ,12725 ,12725 ,12725 ,13043 ,13361 ,13679 ,13679 ,13997 ,13997 ,14315
	 ,14315 ,13997 ,13997 ,13679 ,13361 ,13361 ,13043 ,13043 ,12725 ,12725
	 ,12725 ,12725 ,12725 ,12725 ,12725 ,12725 ,12725 ,12725 ,12407 ,12407
	 ,12407 ,12407 ,12407 ,12407 ,12407 ,12407 ,12407 ,12407 ,12407 ,12407
	 ,12407 ,12407 ,12088 ,12088 ,12088 ,12088 ,12088 ,12088 ,12407 ,12407
	 ,12407 ,12407 ,12088 ,12088 ,12407 ,12407 ,12407 ,12407 ,12407 ,12725
	 ,12725 ,12725 ,12725 ,12725 ,13043 ,13043 ,13043 ,13043 ,13043 ,13043
	 ,12725 ,12725 ,12725 ,12725 ,12725 ,12725 ,12725 ,12407 ,12407 ,12407
	 ,12088 ,11770 ,11770 ,11452 ,11134 ,11134 ,11134 ,11452 ,11452 ,11770
	 ,12088 ,12407 ,12725 ,13043 ,13043 ,13361 ,13679 ,13679 ,13997 ,13997
	 ,13997 ,13997 ,13997 ,13997 ,13997 ,13997 ,13997 ,13679 ,13679 ,13679
	 ,13679 ,13679 ,13997 ,14315 ,14634 ,14952 ,15270 ,15588 ,15906 ,15906
	 ,15906 ,15588 ,15588 ,15270 ,14952 ,14952 ,14634 ,14315 ,14315 ,13997
	 ,13679 ,13679 ,13361 ,13043 ,12725 ,12725 ,12407 ,12407 ,12088 ,12088
	 ,11770 ,11770 ,11452 ,11452 ,11452 ,11452 ,11452 ,11452 ,11452 ,11452
	 ,11134 ,11134 ,10816 ,10816 ,10498 ,10498 ,10498 ,10498 ,10498 ,10816
	 ,10816 ,10816 ,10816 ,10816 ,10816 ,10498 ,10498 ,10180 ,10180 ,10180
	 ,10498 ,10816 ,10816 ,10816 ,10816 ,10816 ,10498 ,9862 ,9543 ,8907
	 ,8589 ,8907 ,9543 ,10816 ,13043 ,15906 ,19724 ,24177 ,29586 ,34994
	 ,40402 ,45810 ,50264 ,53764 ,55991 ,56309 ,54718 ,51219 ,46129 ,39766
	 ,33085 ,26086 ,19405 ,13997 ,9862 ,6998 ,5726 ,5408 ,6362 ,7635
	 ,8907 ,10180 ,11452 ,12088 ,12407 ,12407 ,12407 ,12407 ,12088 ,12088
	 ,11770 ,11770 ,11770 ,11770 ,11452 ,11452 ,11134 ,11134 ,11134 ,11134
	 ,11134 ,11134 ,11452 ,11452 ,11770 ,12088 ,12088 ,12407 ,12725 ,13043
	 ,13361 ,13361 ,13361 ,13361 ,13361 ,13043 ,13043 ,12725 ,12725 ,12725
	 ,12725 ,13043 ,13361 ,13679 ,13997 ,14315 ,14634 ,14952 ,15270 ,15588
	 ,15906 ,15906 ,15906 ,15588 ,15588 ,15588 ,15270 ,15270 ,15588 ,15588
	 ,15906 ,16224 ,16542 ,16860 ,16860 ,17179 ,17179 ,17179 ,17179 ,17497
	 ,17497 ,17815 ,18133 ,18769 ,19087 ,19724 ,20042 ,20678 ,20996 ,21314
	 ,21632 ,21951 ,22587 ,22905 ,23223 ,23859 ,24177 ,24496 ,25132 ,25450
	 ,25768 ,25768 ,26086 ,26404 ,26723 ,27041 ,27359 ,27677 ,27677 ,27677
	 ,27677 ,27677 ,27677 ,27359 ,27359 ,26723 ,26404 ,25768 ,24814 ,24177
	 ,23223 ,22269 ,21632 ,20996 ,20360 ,20042 ,19405 ,19087 ,18769 ,18133
	 ,17497 ,17179 ,16542 ,16224 ,15906 ,15588 ,15270 ,14952 ,14952 ,14634
	 ,14315 ,13997 ,13997 ,13679 ,13361 ,13361 ,13043 ,13043 ,13043 ,12725
	 ,12725 ,12407 ,12407 ,12088 ,12088 ,11770 ,11770 ,11452 ,11452 ,11134
	 ,10816 ,10816 ,10498 ,10180 ,10180 ,10180 ,10180 ,10498 ,10816 ,11452
	 ,11770 ,12407 ,12725 ,13043 ,13361 ,13361 ,13361 ,13361 ,13043 ,12725
	 ,12407 ,12088 ,11770 ,11452 ,11452 ,11452 ,11452 ,11770 ,11770 ,12088
	 ,12088 ,12088 ,12088 ,12088 ,12088 ,12088 ,11770 ,11770 ,11770 ,11770
	 ,12088 ,12407 ,12407 ,12725 ,13043 ,13043 ,13043 ,13043 ,13043 ,12725
	 ,12407 ,12407 ,12088 ,12088 ,12088 ,12407 ,12725 ,13043 ,13361 ,13679
	 ,13997 ,14315 ,14315 ,14634 ,14634 ,14634 ,14315 ,14315 ,13997 ,13997
	 ,13679 ,13361 ,13043 ,13043 ,12725 ,12407 ,12088 ,12088 ,12088 ,12088
	 ,12407 ,12407 ,12725 ,13043 ,13043 ,13361 ,13361 ,13361 ,13361 ,13043
	 ,13043 ,12725 ,12725 ,12725 ,12725 ,12725 ,12725 ,13043 ,13043 ,13361
	 ,13361 ,13043 ,13043 ,12725 ,12725 ,12407 ,12407 ,12088 ,12088 ,12088
	 ,12088 ,12088 ,12088 ,12088 ,12088 ,12088 ,12088 ,12088 ,12088 ,12088
	 ,12407 ,12407 ,12407 ,12407 ,12407 ,12088 ,12088 ,11770 ,11770 ,11452
	 ,11134 ,11134 ,11134 ,11134 ,11134 ,11134 ,11452 ,11770 ,11770 ,11770
	 ,12088 ,12088 ,12088 ,12088 ,12088 ,12088 ,11770 ,11770 ,11770 ,11770
	 ,11770 ,11770 ,11452 ,11452 ,11134 ,10816 ,10816 ,10498 ,10498 ,10816
	 ,11134 ,11452 ,11770 ,12407 ,12725 ,13361 ,13679 ,13679 ,13679 ,13679
	 ,13679 ,13361 ,13043 ,12725 ,12725 ,12407 ,12407 ,12725 ,12725 ,13043
	 ,13043 ,13361 ,13997 ,14315 ,14634 ,14952 ,15270 ,15588 ,15588 ,15588
	 ,15588 ,15270 ,14952 ,14634 ,13997 ,13361 ,12725 ,12407 ,12088 ,11452
	 ,11452 ,11134 ,10816 ,10816 ,10498 ,10498 ,10498 ,10180 ,10180 ,10180
	 ,10180 ,9862 ,9862 ,9862 ,9862 ,9862 ,10180 ,10180 ,10180 ,10498
	 ,10498 ,10498 ,10816 ,10498 ,10498 ,10498 ,10180 ,10180 ,9862 ,9862
	 ,9543 ,9543 ,9543 ,9543 ,9225 ,9225 ,9225 ,9543 ,9543 ,9543
	 ,9862 ,9543 ,9543 ,9225 ,8589 ,7953 ,7317 ,6998 ,6680 ,7317
	 ,8271 ,10180 ,13043 ,16542 ,20996 ,25768 ,31176 ,36585 ,41993 ,46765
	 ,50582 ,53446 ,54400 ,53764 ,50900 ,46447 ,40402 ,33403 ,26404 ,19405
	 ,13679 ,9225 ,6362 ,4771 ,4771 ,5726 ,6998 ,8271 ,9543 ,10180
	 ,10498 ,10498 ,10498 ,10498 ,10498 ,10498 ,11134 ,11452 ,11770 ,12088
	 ,12407 ,12407 ,12407 ,12088 ,11770 ,11770 ,11452 ,11452 ,11452 ,11770
	 ,12088 ,12088 ,12407 ,12725 ,12725 ,12725 ,12725 ,12725 ,12725 ,12725
	 ,12725 ,12725 ,12725 ,13043 ,13043 ,13679 ,13997 ,14315 ,14634 ,14634
	 ,14952 ,14952 ,14952 ,14952 ,14634 ,14634 ,14634 ,14634 ,14952 ,14952
	 ,14952 ,14952 ,14952 ,14952 ,14952 ,14952 ,14952 ,15270 ,15588 ,16224
	 ,16860 ,17497 ,18133 ,18769 ,19087 ,19405 ,19405 ,19405 ,19405 ,19087
	 ,19087 ,19087 ,19087 ,19405 ,19724 ,20360 ,20996 ,21314 ,21951 ,22269
	 ,22905 ,23223 ,23541 ,23859 ,24177 ,24496 ,24814 ,25132 ,25450 ,25768
	 ,26086 ,26404 ,26404 ,26723 ,26723 ,26723 ,26723 ,27041 ,27041 ,27041
	 ,27041 ,27041 ,26723 ,26404 ,26086 ,25768 ,25132 ,24814 ,24177 ,23541
	 ,23223 ,22269 ,21632 ,20996 ,20042 ,19087 ,18451 ,17815 ,17179 ,16542
	 ,16224 ,15906 ,15906 ,15588 ,15588 ,15270 ,14952 ,14634 ,14315 ,13997
	 ,13679 ,13361 ,13043 ,13043 ,12725 ,12725 ,12725 ,12725 ,12407 ,12407
	 ,12088 ,12088 ,12088 ,12088 ,12088 ,12088 ,12088 ,12088 ,11770 ,11770
	 ,11452 ,11452 ,11134 ,10816 ,10816 ,10816 ,11134 ,11452 ,11770 ,12088
	 ,12407 ,12725 ,13043 ,13043 ,13361 ,13361 ,13361 ,13361 ,13043 ,12725
	 ,12407 ,12088 ,11770 ,11770 ,11452 ,11452 ,11452 ,11452 ,11452 ,11770
	 ,11770 ,11770 ,12088 ,12088 ,12088 ,12407 ,12407 ,12407 ,12725 ,12725
	 ,12725 ,12725 ,12725 ,12725 ,12725 ,12725 ,12725 ,13043 ,13043 ,13361
	 ,13679 ,13679 ,13997 ,13997 ,13679 ,13679 ,13361 ,13361 ,13043 ,12725
	 ,12407 ,12407 ,12407 ,12088 ,12088 ,12088 ,12088 ,12088 ,12088 ,12088
	 ,12088 ,12088 ,12088 ,12088 ,12088 ,12407 ,12407 ,12725 ,12725 ,13043
	 ,13043 ,13043 ,12725 ,12407 ,12088 ,11770 ,11452 ,11452 ,11452 ,11452
	 ,11770 ,12088 ,12407 ,12725 ,13043 ,13043 ,12725 ,12407 ,12088 ,11770
	 ,11770 ,11452 ,11452 ,11770 ,11770 ,12088 ,12407 ,12407 ,12407 ,12088
	 ,12088 ,11770 ,11452 ,11452 ,11452 ,11452 ,11770 ,12088 ,12088 ,12407
	 ,12407 ,12407 ,12088 ,11770 ,11452 ,11134 ,11134 ,11134 ,11452 ,11770
	 ,12088 ,12407 ,12407 ,12725 ,12725 ,12407 ,12407 ,12088 ,11770 ,11770
	 ,11452 ,11452 ,11452 ,11452 ,11452 ,11770 ,11770 ,11770 ,11770 ,12088
	 ,11770 ,11770 ,11770 ,11770 ,11770 ,12088 ,12407 ,12725 ,13043 ,13679
	 ,13997 ,14315 ,14315 ,14315 ,14315 ,13997 ,13361 ,13043 ,13043 ,13043
	 ,13361 ,13679 ,14634 ,15270 ,16224 ,16860 ,17179 ,17497 ,17179 ,16860
	 ,16224 ,15588 ,15270 ,14634 ,14315 ,14315 ,14315 ,14315 ,14315 ,14315
	 ,14315 ,14315 ,13997 ,13679 ,13361 ,12725 ,12088 ,11770 ,11452 ,10816
	 ,10816 ,10498 ,10498 ,10498 ,10816 ,10816 ,10816 ,10816 ,10816 ,10816
	 ,10816 ,11134 ,11134 ,11452 ,11770 ,12088 ,12088 ,12088 ,12088 ,11770
	 ,11452 ,11134 ,10816 ,10816 ,10498 ,10498 ,10180 ,10180 ,10180 ,9862
	 ,9862 ,9862 ,9862 ,10180 ,10498 ,11134 ,11452 ,11452 ,11452 ,11134
	 ,10498 ,9543 ,8907 ,8589 ,8907 ,9862 ,11770 ,14634 ,18451 ,22587
	 ,27677 ,32767 ,37539 ,42311 ,46447 ,49628 ,51219 ,51537 ,49946 ,46765
	 ,41993 ,35948 ,29268 ,22269 ,15906 ,10498 ,6680 ,4453 ,3817 ,4453
	 ,5726 ,7635 ,9225 ,10816 ,11770 ,12088 ,12407 ,12407 ,12725 ,12725
	 ,13043 ,13361 ,13361 ,13679 ,13997 ,13997 ,13997 ,13679 ,13679 ,13997
	 ,13997 ,14315 ,14634 ,14634 ,14952 ,14952 ,14634 ,14634 ,14315 ,13997
	 ,13997 ,14315 ,14634 ,14634 ,14952 ,15270 ,15270 ,15270 ,15270 ,15270
	 ,14952 ,14952 ,14952 ,14952 ,14952 ,14952 ,15270 ,15270 ,15588 ,15588
	 ,15906 ,16224 ,16542 ,16860 ,17179 ,17497 ,17815 ,17815 ,17815 ,17497
	 ,17497 ,17179 ,17497 ,17497 ,17815 ,18133 ,18451 ,18769 ,19087 ,19087
	 ,19405 ,19405 ,19724 ,19724 ,20042 ,20360 ,20996 ,21314 ,21632 ,21951
	 ,22269 ,22587 ,22905 ,23223 ,23223 ,23541 ,24177 ,24496 ,25132 ,25768
	 ,26404 ,26723 ,27359 ,27677 ,27995 ,27995 ,28313 ,28313 ,28313 ,28313
	 ,27995 ,27995 ,27677 ,27359 ,27359 ,27041 ,26723 ,26723 ,26723 ,26404
	 ,26404 ,26086 ,25768 ,25450 ,24814 ,24177 ,23541 ,22905 ,22269 ,21632
	 ,20996 ,20360 ,19724 ,19087 ,18451 ,17815 ,17179 ,16224 ,15588 ,14952
	 ,14315 ,13997 ,13997 ,13997 ,13997 ,13997 ,13997 ,13997 ,13997 ,13679
	 ,13679 ,13361 ,13361 ,13361 ,13361 ,13361 ,13043 ,13043 ,13043 ,12725
	 ,12725 ,12407 ,12407 ,12407 ,12407 ,12407 ,12725 ,13043 ,13361 ,13361
	 ,13361 ,13361 ,13043 ,13043 ,12725 ,12725 ,12725 ,12407 ,12725 ,12725
	 ,12725 ,12725 ,12725 ,12725 ,12725 ,13043 ,13043 ,13043 ,13361 ,13361
	 ,13679 ,13679 ,13679 ,13679 ,13679 ,13679 ,13679 ,13679 ,13679 ,13997
	 ,13997 ,14315 ,14315 ,14315 ,14315 ,13997 ,13679 ,13361 ,13043 ,12725
	 ,12407 ,12725 ,12725 ,13043 ,13043 ,13361 ,13361 ,13361 ,13361 ,13361
	 ,13361 ,13361 ,13361 ,13361 ,13361 ,13361 ,13361 ,13043 ,13043 ,12725
	 ,12407 ,12407 ,12088 ,12088 ,12407 ,12407 ,12407 ,12725 ,12725 ,12725
	 ,12725 ,12407 ,12088 ,12088 ,11770 ,11452 ,11452 ,11452 ,11452 ,11452
	 ,11452 ,11452 ,11452 ,11452 ,11770 ,11770 ,11770 ,12088 ,12407 ,12725
	 ,12725 ,13043 ,13043 ,13043 ,13043 ,12725 ,12407 ,12088 ,11770 ,11770
	 ,11452 ,11134 ,10816 ,10816 ,10816 ,10816 ,11134 ,11134 ,11452 ,11770
	 ,11770 ,12088 ,12088 ,11770 ,11770 ,11770 ,11452 ,11452 ,11452 ,11452
	 ,11770 ,11770 ,12088 ,12088 ,12088 ,12088 ,11770 ,11452 ,11134 ,11134
	 ,10816 ,10816 ,10816 ,11134 ,11134 ,11452 ,11770 ,11770 ,12088 ,12088
	 ,12088 ,11770 ,11770 ,11770 ,11770 ,11770 ,11770 ,12088 ,12088 ,12407
	 ,12407 ,12407 ,12407 ,12407 ,12407 ,12725 ,13043 ,13361 ,13361 ,13679
	 ,13997 ,14315 ,14315 ,14315 ,13997 ,13997 ,13679 ,13679 ,13679 ,13679
	 ,13997 ,14315 ,14315 ,14634 ,14952 ,14952 ,14952 ,14952 ,14952 ,14952
	 ,14634 ,14634 ,14952 ,14952 ,14952 ,14952 ,15270 ,14952 ,14952 ,14634
	 ,14634 ,14315 ,13679 ,13361 ,13043 ,12725 ,12725 ,12407 ,12407 ,12088
	 ,12088 ,12088 ,12088 ,12088 ,12088 ,12088 ,11770 ,11770 ,11452 ,11452
	 ,11452 ,11452 ,11770 ,11770 ,12088 ,12088 ,12088 ,12088 ,11770 ,11770
	 ,11452 ,11452 ,11452 ,11452 ,11452 ,11452 ,11770 ,11452 ,11452 ,11134
	 ,11134 ,10816 ,10816 ,10816 ,10816 ,10816 ,10816 ,10816 ,10498 ,9862
	 ,9543 ,9543 ,10180 ,11452 ,13361 ,16542 ,20678 ,25450 ,30858 ,36266
	 ,41675 ,46447 ,50264 ,52809 ,53764 ,53127 ,50582 ,46447 ,40720 ,34358
	 ,27359 ,20360 ,14315 ,9543 ,6044 ,4135 ,3817 ,4771 ,6362 ,8271
	 ,10180 ,11452 ,12407 ,12725 ,12407 ,12088 ,11770 ,11452 ,11134 ,11134
	 ,10816 ,10816 ,10816 ,10816 ,10816 ,11134 ,11134 ,11770 ,12088 ,12725
	 ,13043 ,13361 ,13679 ,13679 ,13361 ,13361 ,13043 ,13043 ,13043 ,13043
	 ,13043 ,13361 ,13361 ,13361 ,13361 ,13361 ,13361 ,13361 ,13361 ,13361
	 ,13361 ,13679 ,13679 ,13679 ,13997 ,13997 ,13997 ,13997 ,13997 ,14315
	 ,14315 ,14634 ,14952 ,14952 ,15270 ,15270 ,15270 ,15270 ,15588 ,15588
	 ,15588 ,15906 ,16224 ,16542 ,16860 ,17179 ,17815 ,18133 ,18451 ,18769
	 ,19087 ,19087 ,19405 ,19724 ,20042 ,20678 ,20996 ,21314 ,21951 ,22269
	 ,22587 ,22905 ,23223 ,23541 ,23859 ,24177 ,24496 ,24814 ,25132 ,25450
	 ,25450 ,25768 ,26086 ,26086 ,26404 ,26404 ,26723 ,26723 ,27041 ,27041
	 ,27359 ,27677 ,27677 ,27995 ,27995 ,27995 ,27677 ,27041 ,26723 ,25768
	 ,25132 ,24496 ,23541 ,22905 ,22269 ,21632 ,21314 ,20678 ,20042 ,19405
	 ,18769 ,18451 ,17815 ,17497 ,17179 ,17179 ,16860 ,16542 ,16224 ,15906
	 ,15588 ,15270 ,14952 ,14634 ,14315 ,14315 ,14315 ,14315 ,14315 ,14315
	 ,13997 ,13997 ,13679 ,13361 ,13361 ,13043 ,13043 ,13043 ,13043 ,13043
	 ,13043 ,13043 ,13043 ,13043 ,13043 ,12725 ,12725 ,12725 ,12725 ,12725
};