0	0.03825	-0.45	-0.085
0.002	0.036		-0.08
0.004	0.0315		-0.07
0.006	0.03375		-0.075
0.008	0.04275		-0.095
0.01	0.0405		-0.09
0.012	0.045		-0.1
0.014	0.045		-0.1
0.016	0.045		-0.1
0.018	0.03825		-0.085
0.02	0.027		-0.06
0.022	0.02025		-0.045
0.024	0.02475		-0.055
0.026	0.027		-0.06
0.028	0.0315		-0.07
0.03	0.036		-0.08
0.032	0.03825		-0.085
0.034	0.036		-0.08
0.036	0.0315		-0.07
0.038	0.018		-0.04
0.04	0.0225		-0.05
0.042	0.02025		-0.045
0.044	0.018		-0.04
0.046	0.018		-0.04
0.048	0.02475		-0.055
0.05	0.027		-0.06
0.052	0.02475		-0.055
0.054	0.02475		-0.055
0.056	0.02475		-0.055
0.058	0.02025		-0.045
0.06	0.018		-0.04
0.062	0.02025		-0.045
0.064	0.018		-0.04
0.066	0.0135		-0.03
0.068	0.01575		-0.035
0.07	0.02025		-0.045
0.072	0.02475		-0.055
0.074	0.02475		-0.055
0.076	0.0225		-0.05
0.078	0.009		-0.02
0.08	0.00675		-0.015
0.082	0.0045		-0.01
0.084	-0.00225		0.005
0.086	0		0
0.088	0.00225		-0.005
0.09	0.01125		-0.025
0.092	0.01575		-0.035
0.094	0.0135		-0.03
0.096	0.0135		-0.03
0.098	0.00675		-0.015
0.1	0.00225		-0.005
0.102	0		0
0.104	-0.0045		0.01
0.106	-0.009		0.02
0.108	0		0
0.11	0.00225		-0.005
0.112	-0.00225		0.005
0.114	-0.00225		0.005
0.116	-0.0045		0.01
0.118	-0.01125		0.025
0.12	-0.018		0.04
0.122	-0.02475		0.055
0.124	-0.027		0.06
0.126	-0.02025		0.045
0.128	-0.018		0.04
0.13	-0.02025		0.045
0.132	-0.018		0.04
0.134	-0.018		0.04
0.136	-0.0315		0.07
0.138	-0.03375		0.075
0.14	-0.0405		0.09
0.142	-0.04725		0.105
0.144	-0.04725		0.105
0.146	-0.05175		0.115
0.148	-0.04725		0.105
0.15	-0.045		0.1
0.152	-0.045		0.1
0.154	-0.04275		0.095
0.156	-0.05625		0.125
0.158	-0.06975		0.155
0.16	-0.072		0.16
0.162	-0.072		0.16
0.164	-0.07875		0.175
0.166	-0.07875		0.175
0.168	-0.06975		0.155
0.17	-0.072		0.16
0.172	-0.0675		0.15
0.174	-0.0675		0.15
0.176	-0.072		0.16
0.178	-0.081		0.18
0.18	-0.0855		0.19
0.182	-0.0855		0.19
0.184	-0.09		0.2
0.186	-0.0855		0.19
0.188	-0.081		0.18
0.19	-0.07875		0.175
0.192	-0.07425		0.165
0.194	-0.072		0.16
0.196	-0.07425		0.165
0.198	-0.06975		0.155
0.2	-0.07425		0.165
0.202	-0.07425		0.165
0.204	-0.0765		0.17
0.206	-0.06525		0.145
0.208	-0.06075		0.135
0.21	-0.0495		0.11
0.212	-0.0405		0.09
0.214	-0.0315		0.07
0.216	-0.03375		0.075
0.218	-0.03825		0.085
0.22	-0.03825		0.085
0.222	-0.0315		0.07
0.224	-0.0315		0.07
0.226	-0.0225		0.05
0.228	-0.018		0.04
0.23	-0.01125		0.025
0.232	-0.00225		0.005
0.234	0.00225		-0.005
0.236	0		0
0.238	0		0
0.24	-0.00225		0.005
0.242	-0.0045		0.01
0.244	0		0
0.246	-0.0045		0.01
0.248	-0.00675		0.015
0.25	-0.0135		0.03
0.252	-0.01575		0.035
0.254	-0.02025		0.045
0.256	-0.02925		0.065
0.258	-0.03825		0.085
0.26	-0.0405		0.09
0.262	-0.054		0.12
0.264	-0.05175		0.115
0.266	-0.0405		0.09
0.268	-0.03825		0.085
0.27	-0.0315		0.07
0.272	-0.036		0.08
0.274	-0.036		0.08
0.276	-0.0405		0.09
0.278	-0.04275		0.095
0.28	-0.0495		0.11
0.282	-0.05175		0.115
0.284	-0.0585		0.13
0.286	-0.05175		0.115
0.288	-0.045		0.1
0.29	-0.04275		0.095
0.292	-0.04275		0.095
0.294	-0.04275		0.095
0.296	-0.045		0.1
0.298	-0.0495		0.11
0.3	-0.054		0.12
0.302	-0.05625		0.125
0.304	-0.063		0.14
0.306	-0.06075		0.135
0.308	-0.05175		0.115
0.31	-0.05175		0.115
0.312	-0.05175		0.115
0.314	-0.05175		0.115
0.316	-0.05625		0.125
0.318	-0.0585		0.13
0.32	-0.05625		0.125
0.322	-0.063		0.14
0.324	-0.063		0.14
0.326	-0.063		0.14
0.328	-0.0585		0.13
0.33	-0.04725		0.105
0.332	-0.045		0.1
0.334	-0.045		0.1
0.336	-0.0585		0.13
0.338	-0.063		0.14
0.34	-0.06075		0.135
0.342	-0.0675		0.15
0.344	-0.06525		0.145
0.346	-0.0585		0.13
0.348	-0.05625		0.125
0.35	-0.05625		0.125
0.352	-0.05175		0.115
0.354	-0.054		0.12
0.356	-0.05625		0.125
0.358	-0.063		0.14
0.36	-0.063		0.14
0.362	-0.0675		0.15
0.364	-0.06525		0.145
0.366	-0.063		0.14
0.368	-0.06075		0.135
0.37	-0.063		0.14
0.372	-0.05625		0.125
0.374	-0.05625		0.125
0.376	-0.06075		0.135
0.378	-0.06525		0.145
0.38	-0.06525		0.145
0.382	-0.063		0.14
0.384	-0.06075		0.135
0.386	-0.054		0.12
0.388	-0.054		0.12
0.39	-0.0495		0.11
0.392	-0.05175		0.115
0.394	-0.054		0.12
0.396	-0.06075		0.135
0.398	-0.06075		0.135
0.4	-0.0585		0.13
0.402	-0.06075		0.135
0.404	-0.0585		0.13
0.406	-0.0495		0.11
0.408	-0.0495		0.11
0.41	-0.0495		0.11
0.412	-0.04725		0.105
0.414	-0.05175		0.115
0.416	-0.05625		0.125
0.418	-0.0585		0.13
0.42	-0.05175		0.115
0.422	-0.054		0.12
0.424	-0.05175		0.115
0.426	-0.04725		0.105
0.428	-0.045		0.1
0.43	-0.04725		0.105
0.432	-0.0405		0.09
0.434	-0.045		0.1
0.436	-0.04725		0.105
0.438	-0.0495		0.11
0.44	-0.054		0.12
0.442	-0.06075		0.135
0.444	-0.054		0.12
0.446	-0.0495		0.11
0.448	-0.04275		0.095
0.45	-0.045		0.1
0.452	-0.04275		0.095
0.454	-0.045		0.1
0.456	-0.0495		0.11
0.458	-0.0495		0.11
0.46	-0.05175		0.115
0.462	-0.05175		0.115
0.464	-0.04275		0.095
0.466	-0.036		0.08
0.468	-0.03375		0.075
0.47	-0.0315		0.07
0.472	-0.0315		0.07
0.474	-0.03375		0.075
0.476	-0.0405		0.09
0.478	-0.03825		0.085
0.48	-0.045		0.1
0.482	-0.05625		0.125
0.484	-0.0495		0.11
0.486	-0.04725		0.105
0.488	-0.03375		0.075
0.49	-0.036		0.08
0.492	-0.02925		0.065
0.494	-0.03375		0.075
0.496	-0.036		0.08
0.498	-0.0405		0.09
0.5	-0.045		0.1
0.502	-0.05175		0.115
0.504	-0.04725		0.105
0.506	-0.0405		0.09
0.508	-0.03825		0.085
0.51	-0.0405		0.09
0.512	-0.03825		0.085
0.514	-0.04275		0.095
0.516	-0.0495		0.11
0.518	-0.06075		0.135
0.52	-0.0585		0.13
0.522	-0.06075		0.135
0.524	-0.05625		0.125
0.526	-0.054		0.12
0.528	-0.0495		0.11
0.53	-0.04725		0.105
0.532	-0.04275		0.095
0.534	-0.0495		0.11
0.536	-0.063		0.14
0.538	-0.06075		0.135
0.54	-0.063		0.14
0.542	-0.063		0.14
0.544	-0.0585		0.13
0.546	-0.05625		0.125
0.548	-0.054		0.12
0.55	-0.04725		0.105
0.552	-0.045		0.1
0.554	-0.054		0.12
0.556	-0.0675		0.15
0.558	-0.072		0.16
0.56	-0.072		0.16
0.562	-0.0765		0.17
0.564	-0.072		0.16
0.566	-0.054		0.12
0.568	-0.05175		0.115
0.57	-0.05175		0.115
0.572	-0.04275		0.095
0.574	-0.04275		0.095
0.576	-0.045		0.1
0.578	-0.04275		0.095
0.58	-0.0405		0.09
0.582	-0.0405		0.09
0.584	-0.03825		0.085
0.586	-0.02475		0.055
0.588	-0.02925		0.065
0.59	-0.027		0.06
0.592	-0.02925		0.065
0.594	-0.03375		0.075
0.596	-0.036		0.08
0.598	-0.036		0.08
0.6	-0.04275		0.095
0.602	-0.03375		0.075
0.604	-0.02475		0.055
0.606	-0.0225		0.05
0.608	-0.02025		0.045
0.61	-0.01575		0.035
0.612	-0.02025		0.045
0.614	-0.02025		0.045
0.616	-0.02475		0.055
0.618	-0.027		0.06
0.62	-0.027		0.06
0.622	-0.027		0.06
0.624	-0.027		0.06
0.626	-0.0225		0.05
0.628	-0.01575		0.035
0.63	-0.009		0.02
0.632	-0.01125		0.025
0.634	-0.01575		0.035
0.636	-0.02025		0.045
0.638	-0.02475		0.055
0.64	-0.027		0.06
0.642	-0.02475		0.055
0.644	-0.01575		0.035
0.646	-0.01125		0.025
0.648	-0.0135		0.03
0.65	-0.009		0.02
0.652	-0.0135		0.03
0.654	-0.0225		0.05
0.656	-0.0135		0.03
0.658	-0.018		0.04
0.66	-0.0225		0.05
0.662	-0.018		0.04
0.664	-0.01125		0.025
0.666	0		0
0.668	0.0045		-0.01
0.67	0.01125		-0.025
0.672	0.0135		-0.03
0.674	0.01125		-0.025
0.676	0.00675		-0.015
0.678	0.00225		-0.005
0.68	-0.0135		0.03
0.682	-0.02925		0.065
0.684	-0.0495		0.11
0.686	-0.072		0.16
0.688	-0.09		0.2
0.69	-0.11475		0.255
0.692	-0.15075		0.335
0.694	-0.19125		0.425
0.696	-0.2385		0.53
0.698	-0.29025		0.645
0.7	-0.324		0.72
0.702	-0.33075		0.735
0.704	-0.30825		0.685
0.706	-0.2835		0.63
0.708	-0.2565		0.57
0.71	-0.21825		0.485
0.712	-0.1845		0.41
0.714	-0.15075		0.335
0.716	-0.1035		0.23
0.718	-0.045		0.1
0.72	-0.0045		0.01
0.722	0.027		-0.06
0.724	0.045		-0.1
0.726	0.045		-0.1
0.728	0.0405		-0.09
0.73	0.03825		-0.085
0.732	0.027		-0.06
0.734	0.009		-0.02
0.736	-0.0045		0.01
0.738	-0.01575		0.035
0.74	-0.018		0.04
0.742	-0.01575		0.035
0.744	-0.00675		0.015
0.746	0.00225		-0.005
0.748	0.009		-0.02
0.75	0.01125		-0.025
0.752	0.0045		-0.01
0.754	0		0
0.756	-0.00225		0.005
0.758	-0.01125		0.025
0.76	-0.01125		0.025
0.762	-0.009		0.02
0.764	0		0
0.766	-0.00225		0.005
0.768	0.00675		-0.015
0.77	0.009		-0.02
0.772	0.0045		-0.01
0.774	0.0045		-0.01
0.776	0		0
0.778	-0.0045		0.01
0.78	0		0
0.782	-0.00225		0.005
0.784	-0.00225		0.005
0.786	0.00225		-0.005
0.788	0		0
0.79	0.0045		-0.01
0.792	0		0
0.794	-0.00675		0.015
0.796	-0.009		0.02
0.798	-0.01125		0.025
0.8	-0.018		0.04
0.802	-0.01125		0.025
0.804	-0.0045		0.01
0.806	0		0
0.808	0.00225		-0.005
0.81	0.00225		-0.005
0.812	-0.00225		0.005
0.814	-0.01125		0.025
0.816	-0.01125		0.025
0.818	-0.0135		0.03
0.82	-0.01125		0.025
0.822	-0.0045		0.01
0.824	-0.009		0.02
0.826	-0.00225		0.005
0.828	-0.0045		0.01
0.83	-0.00225		0.005
0.832	-0.00675		0.015
0.834	-0.009		0.02
0.836	-0.01575		0.035
0.838	-0.018		0.04
0.84	-0.0225		0.05
0.842	-0.0225		0.05
0.844	-0.02025		0.045
0.846	-0.018		0.04
0.848	-0.01125		0.025
0.85	-0.0135		0.03
0.852	-0.0135		0.03
0.854	-0.018		0.04
0.856	-0.02025		0.045
0.858	-0.02475		0.055
0.86	-0.027		0.06
0.862	-0.02925		0.065
0.864	-0.02925		0.065
0.866	-0.0315		0.07
0.868	-0.0315		0.07
0.87	-0.02925		0.065
0.872	-0.036		0.08
0.874	-0.04275		0.095
0.876	-0.04725		0.105
0.878	-0.04725		0.105
0.88	-0.054		0.12
0.882	-0.05175		0.115
0.884	-0.05175		0.115
0.886	-0.0495		0.11
0.888	-0.045		0.1
0.89	-0.045		0.1
0.892	-0.05175		0.115
0.894	-0.0585		0.13
0.896	-0.0675		0.15
0.898	-0.06975		0.155
0.9	-0.072		0.16
0.902	-0.0675		0.15
0.904	-0.072		0.16
0.906	-0.07425		0.165
0.908	-0.06975		0.155
0.91	-0.072		0.16
0.912	-0.07875		0.175
0.914	-0.09		0.2
0.916	-0.09225		0.205
0.918	-0.0945		0.21
0.92	-0.09225		0.205
0.922	-0.08775		0.195
0.924	-0.08325		0.185
0.926	-0.081		0.18
0.928	-0.081		0.18
0.93	-0.081		0.18
0.932	-0.081		0.18
0.934	-0.09		0.2
0.936	-0.09225		0.205
0.938	-0.09225		0.205
0.94	-0.08775		0.195
0.942	-0.0765		0.17
0.944	-0.0675		0.15
0.946	-0.06075		0.135
0.948	-0.0585		0.13
0.95	-0.05625		0.125
0.952	-0.0585		0.13
0.954	-0.05175		0.115
0.956	-0.0585		0.13
0.958	-0.0585		0.13
0.96	-0.05175		0.115
0.962	-0.04275		0.095
0.964	-0.036		0.08
0.966	-0.0315		0.07
0.968	-0.02475		0.055
0.97	-0.0135		0.03
0.972	-0.00675		0.015
0.974	-0.01125		0.025
0.976	-0.01125		0.025
0.978	-0.009		0.02
0.98	-0.0045		0.01
0.982	0.00225		-0.005
0.984	0.009		-0.02
0.986	0.01125		-0.025
0.988	0.01575		-0.035
0.99	0.0135		-0.03
0.992	0.0045		-0.01
0.994	0		0
0.996	0.0045		-0.01
0.998	0.00225		-0.005
1	0.0045		-0.01
1.002	0.0135		-0.03
1.004	0.018		-0.04
1.006	0.02475		-0.055
1.008	0.02925		-0.065
1.01	0.02475		-0.055
1.012	0.018		-0.04
1.014	0.02025		-0.045
1.016	0.01125		-0.025
1.018	0.01575		-0.035
1.02	0.0135		-0.03
1.022	0.0225		-0.05
1.024	0.02475		-0.055
1.026	0.027		-0.06
1.028	0.027		-0.06
1.03	0.02025		-0.045
1.032	0.02025		-0.045
1.034	0.01575		-0.035
1.036	0.009		-0.02
1.038	0.0135		-0.03
1.04	0.0135		-0.03
1.042	0.0225		-0.05
1.044	0.02475		-0.055
1.046	0.02475		-0.055
1.048	0.027		-0.06
1.05	0.02475		-0.055
1.052	0.0225		-0.05
1.054	0.018		-0.04
1.056	0.02475		-0.055
1.058	0.0135		-0.03
1.06	0.02475		-0.055
1.062	0.0225		-0.05
1.064	0.0225		-0.05
1.066	0.027		-0.06
1.068	0.027		-0.06
1.07	0.02025		-0.045
1.072	0.018		-0.04
1.074	0.018		-0.04
1.076	0.018		-0.04
1.078	0.018		-0.04
1.08	0.0225		-0.05
1.082	0.02475		-0.055
1.084	0.02475		-0.055
1.086	0.027		-0.06
1.088	0.02475		-0.055
1.09	0.0135		-0.03
1.092	0.0135		-0.03
1.094	0.01125		-0.025
1.096	0.009		-0.02
1.098	0.00675		-0.015
1.1	0.01125		-0.025
1.102	0.01575		-0.035
1.104	0.02025		-0.045
1.106	0.0225		-0.05
1.108	0.02475		-0.055
1.11	0.02025		-0.045
1.112	0.018		-0.04
1.114	0.009		-0.02
1.116	0.00675		-0.015
1.118	0.0045		-0.01
1.12	0.00675		-0.015
1.122	0.009		-0.02
1.124	0.0135		-0.03
1.126	0.01575		-0.035
1.128	0.018		-0.04
1.13	0.0135		-0.03
1.132	0.0135		-0.03
1.134	0.01125		-0.025
1.136	0.00675		-0.015
1.138	0.00675		-0.015
1.14	0.01125		-0.025
1.142	0.009		-0.02
1.144	0.01575		-0.035
1.146	0.018		-0.04
1.148	0.02025		-0.045
1.15	0.02025		-0.045
1.152	0.0135		-0.03
1.154	0.01125		-0.025
1.156	0.00225		-0.005
1.158	0.0045		-0.01
1.16	0.0135		-0.03
1.162	0.0135		-0.03
1.164	0.01575		-0.035
1.166	0.0225		-0.05
1.168	0.027		-0.06
1.17	0.018		-0.04
1.172	0.018		-0.04
1.174	0.0135		-0.03
1.176	0.009		-0.02
1.178	0.01125		-0.025
1.18	0.018		-0.04
1.182	0.02025		-0.045
1.184	0.009		-0.02
1.186	0.0225		-0.05
1.188	0.02475		-0.055
1.19	0.018		-0.04
1.192	0.0135		-0.03
1.194	0.01575		-0.035
1.196	0.00675		-0.015
1.198	0.009		-0.02
1.2	0.018		-0.04
1.202	0.0225		-0.05
1.204	0.02475		-0.055
1.206	0.027		-0.06
1.208	0.027		-0.06
1.21	0.02475		-0.055
1.212	0.018		-0.04
1.214	0.018		-0.04
1.216	0.01575		-0.035
1.218	0.009		-0.02
1.22	0.01575		-0.035
1.222	0.02025		-0.045
1.224	0.0225		-0.05
1.226	0.0315		-0.07
1.228	0.0315		-0.07
1.23	0.0225		-0.05
1.232	0.02025		-0.045
1.234	0.01575		-0.035
1.236	0.01575		-0.035
1.238	0.01575		-0.035
1.24	0.02025		-0.045
1.242	0.02475		-0.055
1.244	0.0225		-0.05
1.246	0.0225		-0.05
1.248	0.018		-0.04
1.25	0.01575		-0.035
1.252	0.01125		-0.025
1.254	0.00225		-0.005
1.256	0.0045		-0.01
1.258	0.01125		-0.025
1.26	0.018		-0.04
1.262	0.0135		-0.03
1.264	0.01575		-0.035
1.266	0.018		-0.04
1.268	0.018		-0.04
1.27	0.01125		-0.025
1.272	0.00675		-0.015
1.274	0.0045		-0.01
1.276	-0.00675		0.015
1.278	0.00225		-0.005
1.28	0.00225		-0.005
1.282	0.00675		-0.015
1.284	0.009		-0.02
1.286	0.01125		-0.025
1.288	0.01125		-0.025
1.29	0.0045		-0.01
1.292	-0.00225		0.005
1.294	-0.00675		0.015
1.296	-0.009		0.02
1.298	-0.00675		0.015
1.3	-0.00225		0.005
1.302	-0.00225		0.005
1.304	0		0
1.306	0		0
1.308	0		0
1.31	0		0
1.312	-0.00225		0.005
1.314	-0.009		0.02
1.316	-0.0135		0.03
1.318	-0.009		0.02
1.32	0.0045		-0.01
1.322	0.01125		-0.025
1.324	0.01575		-0.035
1.326	0.02475		-0.055
1.328	0.0225		-0.05
1.33	0.02025		-0.045
1.332	0.018		-0.04
1.334	0.02025		-0.045
1.336	0.01125		-0.025
1.338	0.01575		-0.035
1.34	0.027		-0.06
1.342	0.027		-0.06
1.344	0.0315		-0.07
1.346	0.036		-0.08
1.348	0.02925		-0.065
1.35	0.02475		-0.055
1.352	0.0225		-0.05
1.354	0.0225		-0.05
1.356	0.01575		-0.035
1.358	0.02475		-0.055
1.36	0.02475		-0.055
1.362	0.027		-0.06
1.364	0.02925		-0.065
1.366	0.02925		-0.065
1.368	0.027		-0.06
1.37	0.02925		-0.065
1.372	0.02925		-0.065
1.374	0.02925		-0.065
1.376	0.02925		-0.065
1.378	0.02925		-0.065
1.38	0.036		-0.08
1.382	0.03825		-0.085
1.384	0.036		-0.08
1.386	0.045		-0.1
1.388	0.0405		-0.09
1.39	0.036		-0.08
1.392	0.027		-0.06
1.394	0.02025		-0.045
1.396	0.02025		-0.045
1.398	0.02475		-0.055
1.4	0.027		-0.06
1.402	0.03825		-0.085
1.404	0.03825		-0.085
1.406	0.045		-0.1
1.408	0.045		-0.1
1.41	0.036		-0.08
1.412	0.03375		-0.075
1.414	0.0315		-0.07
1.416	0.03375		-0.075
1.418	0.04275		-0.095
1.42	0.04725		-0.105
1.422	0.05175		-0.115
1.424	0.063		-0.14
1.426	0.06975		-0.155
1.428	0.06075		-0.135
1.43	0.04725		-0.105
1.432	0.02025		-0.045
1.434	-0.009		0.02
1.436	-0.03375		0.075
1.438	-0.05625		0.125
1.44	-0.0765		0.17
1.442	-0.10125		0.225
1.444	-0.12375		0.275
1.446	-0.1755		0.39
1.448	-0.23175		0.515
1.45	-0.288		0.64
1.452	-0.3105		0.69
1.454	-0.297		0.66
1.456	-0.27675		0.615
1.458	-0.24975		0.555
1.46	-0.21825		0.485
1.462	-0.1755		0.39
1.464	-0.13725		0.305
1.466	-0.08775		0.195
1.468	-0.03825		0.085
1.47	0.0135		-0.03
1.472	0.05175		-0.115
1.474	0.06975		-0.155
1.476	0.06525		-0.145
1.478	0.05625		-0.125
1.48	0.05175		-0.115
1.482	0.0495		-0.11
1.484	0.03825		-0.085
1.486	0.0225		-0.05
1.488	0.02475		-0.055
1.49	0.0135		-0.03
1.492	0.01575		-0.035
1.494	0.02025		-0.045
1.496	0.018		-0.04
1.498	0.018		-0.04
1.5	0.02925		-0.065
1.502	0.0315		-0.07
1.504	0.036		-0.08
1.506	0.03375		-0.075
1.508	0.0315		-0.07
1.51	0.027		-0.06
1.512	0.0225		-0.05
1.514	0.0135		-0.03
1.516	0.02025		-0.045
1.518	0.02025		-0.045
1.52	0.02475		-0.055
1.522	0.027		-0.06
1.524	0.02475		-0.055
1.526	0.027		-0.06
1.528	0.018		-0.04
1.53	0.01575		-0.035
1.532	0.01125		-0.025
1.534	0.0045		-0.01
1.536	0.01125		-0.025
1.538	0.02025		-0.045
1.54	0.0225		-0.05
1.542	0.02475		-0.055
1.544	0.0225		-0.05
1.546	0.02475		-0.055
1.548	0.0135		-0.03
1.55	0.01125		-0.025
1.552	0.009		-0.02
1.554	0.0045		-0.01
1.556	0.0045		-0.01
1.558	0.009		-0.02
1.56	0.0135		-0.03
1.562	0.01125		-0.025
1.564	0.009		-0.02
1.566	0.00675		-0.015
1.568	-0.00225		0.005
1.57	-0.009		0.02
1.572	-0.01125		0.025
1.574	-0.01125		0.025
1.576	-0.00675		0.015
1.578	-0.00225		0.005
1.58	0.0045		-0.01
1.582	0.0045		-0.01
1.584	0.0045		-0.01
1.586	-0.0045		0.01
1.588	-0.00675		0.015
1.59	-0.01125		0.025
1.592	-0.02025		0.045
1.594	-0.027		0.06
1.596	-0.02925		0.065
1.598	-0.0225		0.05
1.6	-0.018		0.04
1.602	-0.02025		0.045
1.604	-0.018		0.04
1.606	-0.02025		0.045
1.608	-0.02025		0.045
1.61	-0.027		0.06
1.612	-0.02925		0.065
1.614	-0.0315		0.07
1.616	-0.02925		0.065
1.618	-0.02925		0.065
1.62	-0.02925		0.065
1.622	-0.02925		0.065
1.624	-0.03375		0.075
1.626	-0.036		0.08
1.628	-0.045		0.1
1.63	-0.05175		0.115
1.632	-0.05625		0.125
1.634	-0.0585		0.13
1.636	-0.063		0.14
1.638	-0.063		0.14
1.64	-0.0675		0.15
1.642	-0.06075		0.135
1.644	-0.0585		0.13
1.646	-0.063		0.14
1.648	-0.0765		0.17
1.65	-0.07875		0.175
1.652	-0.0855		0.19
1.654	-0.09		0.2
1.656	-0.09225		0.205
1.658	-0.0855		0.19
1.66	-0.09		0.2
1.662	-0.09		0.2
1.664	-0.08775		0.195
1.666	-0.0945		0.21
1.668	-0.10125		0.225
1.67	-0.10575		0.235
1.672	-0.1035		0.23
1.674	-0.108		0.24
1.676	-0.10125		0.225
1.678	-0.10125		0.225
1.68	-0.09225		0.205
1.682	-0.09		0.2
1.684	-0.0855		0.19
1.686	-0.0855		0.19
1.688	-0.09225		0.205
1.69	-0.09225		0.205
1.692	-0.099		0.22
1.694	-0.1035		0.23
1.696	-0.09225		0.205
1.698	-0.08775		0.195
1.7	-0.07875		0.175
1.702	-0.07425		0.165
1.704	-0.06975		0.155
1.706	-0.0675		0.15
1.708	-0.063		0.14
1.71	-0.06075		0.135
1.712	-0.0585		0.13
1.714	-0.0495		0.11
1.716	-0.04725		0.105
1.718	-0.03825		0.085
1.72	-0.03375		0.075
1.722	-0.02925		0.065
1.724	-0.027		0.06
1.726	-0.02925		0.065
1.728	-0.027		0.06
1.73	-0.027		0.06
1.732	-0.0225		0.05
1.734	-0.02025		0.045
1.736	-0.018		0.04
1.738	-0.009		0.02
1.74	-0.0045		0.01
1.742	0		0
1.744	0		0
1.746	-0.0045		0.01
1.748	-0.00675		0.015
1.75	-0.0045		0.01
1.752	-0.009		0.02
1.754	-0.0045		0.01
1.756	0		0
1.758	0.009		-0.02
1.76	0.009		-0.02
1.762	0.018		-0.04
1.764	0.01575		-0.035
1.766	0.01125		-0.025
1.768	0.00675		-0.015
1.77	0.00225		-0.005
1.772	-0.00225		0.005
1.774	0.00225		-0.005
1.776	0.009		-0.02
1.778	0.01125		-0.025
1.78	0.01125		-0.025
1.782	0.01125		-0.025
1.784	0.01125		-0.025
1.786	0.01125		-0.025
1.788	0.0045		-0.01
1.79	-0.00225		0.005
1.792	-0.00675		0.015
1.794	-0.0045		0.01
1.796	-0.00225		0.005
1.798	0.009		-0.02
1.8	0.00675		-0.015
1.802	0.00675		-0.015
1.804	0.009		-0.02
1.806	0.01125		-0.025
1.808	0.009		-0.02
1.81	0.009		-0.02
1.812	0		0
1.814	-0.00675		0.015
1.816	0.00225		-0.005
1.818	0.0045		-0.01
1.82	0.009		-0.02
1.822	0.0135		-0.03
1.824	0.0135		-0.03
1.826	0.00675		-0.015
1.828	0		0
1.83	-0.0045		0.01
1.832	-0.00675		0.015
1.834	-0.00675		0.015
1.836	0.00225		-0.005
1.838	0.0045		-0.01
1.84	0.01575		-0.035
1.842	0.01125		-0.025
1.844	0.01125		-0.025
1.846	0.009		-0.02
1.848	-0.00225		0.005
1.85	-0.00675		0.015
1.852	-0.009		0.02
1.854	-0.01125		0.025
1.856	0		0
1.858	0.0045		-0.01
1.86	0.01125		-0.025
1.862	0.01575		-0.035
1.864	0.009		-0.02
1.866	0.0045		-0.01
1.868	-0.00225		0.005
1.87	-0.00225		0.005
1.872	-0.0045		0.01
1.874	-0.00675		0.015
1.876	0		0
1.878	0.00225		-0.005
1.88	0.009		-0.02
1.882	0.01125		-0.025
1.884	0.01125		-0.025
1.886	0.00675		-0.015
1.888	0		0
1.89	-0.00225		0.005
1.892	-0.00675		0.015
1.894	-0.009		0.02
1.896	0		0
1.898	0.00675		-0.015
1.9	0.009		-0.02
1.902	0.0135		-0.03
1.904	0.01125		-0.025
1.906	0.00225		-0.005
1.908	0.00225		-0.005
1.91	0		0
1.912	-0.0045		0.01
1.914	-0.00675		0.015
1.916	-0.00225		0.005
1.918	0.0045		-0.01
1.92	0.00675		-0.015
1.922	0.009		-0.02
1.924	0.00675		-0.015
1.926	0.00225		-0.005
1.928	0.00225		-0.005
1.93	0.00225		-0.005
1.932	0.0045		-0.01
1.934	0.0045		-0.01
1.936	0.0045		-0.01
1.938	0.00675		-0.015
1.94	0.01125		-0.025
1.942	0.01125		-0.025
1.944	0.009		-0.02
1.946	0.0045		-0.01
1.948	0.0045		-0.01
1.95	0.00225		-0.005
1.952	0.00225		-0.005
1.954	0.0045		-0.01
1.956	0.01125		-0.025
1.958	0.01125		-0.025
1.96	0.01125		-0.025
1.962	0.01575		-0.035
1.964	0.0135		-0.03
1.966	0.009		-0.02
1.968	0.0045		-0.01
1.97	0.00225		-0.005
1.972	0.0045		-0.01
1.974	0.00675		-0.015
1.976	0.01125		-0.025
1.978	0.0135		-0.03
1.98	0.01575		-0.035
1.982	0.018		-0.04
1.984	0.01125		-0.025
1.986	0.009		-0.02
1.988	0.00675		-0.015
1.99	0.00225		-0.005
1.992	0		0
1.994	0.0045		-0.01
1.996	0.01125		-0.025
1.998	0.0135		-0.03
2	0.02025		-0.045
2.002	0.02025		-0.045
2.004	0.02025		-0.045
2.006	0.01575		-0.035
2.008	0.018		-0.04
2.01	0.01125		-0.025
2.012	0.0045		-0.01
2.014	0.01125		-0.025
2.016	0.018		-0.04
2.018	0.018		-0.04
2.02	0.0135		-0.03
2.022	0.01575		-0.035
2.024	0.018		-0.04
2.026	0.01125		-0.025
2.028	0.009		-0.02
2.03	0.00675		-0.015
2.032	0.00225		-0.005
2.034	0.0045		-0.01
2.036	0.01125		-0.025
2.038	0.018		-0.04
2.04	0.02025		-0.045
2.042	0.018		-0.04
2.044	0.009		-0.02
2.046	0.00675		-0.015
2.048	0.0045		-0.01
2.05	0		0
2.052	0.00225		-0.005
2.054	0.0045		-0.01
2.056	0.0045		-0.01
2.058	0.00675		-0.015
2.06	0		0
2.062	-0.0045		0.01
2.064	-0.01125		0.025
2.066	-0.02925		0.065
2.068	-0.0315		0.07
2.07	-0.03825		0.085
2.072	-0.045		0.1
2.074	-0.045		0.1
2.076	-0.0405		0.09
2.078	-0.0405		0.09
2.08	-0.04275		0.095
2.082	-0.03825		0.085
2.084	-0.045		0.1
2.086	-0.04725		0.105
2.088	-0.0495		0.11
2.09	-0.054		0.12
2.092	-0.05625		0.125
2.094	-0.0585		0.13
2.096	-0.06525		0.145
2.098	-0.06975		0.155
2.1	-0.06525		0.145
2.102	-0.06075		0.135
2.104	-0.0675		0.15
2.106	-0.07425		0.165
2.108	-0.081		0.18
2.11	-0.08325		0.185
2.112	-0.07875		0.175
2.114	-0.0765		0.17
2.116	-0.07425		0.165
2.118	-0.07875		0.175
2.12	-0.0765		0.17
2.122	-0.072		0.16
2.124	-0.0765		0.17
2.126	-0.0765		0.17
2.128	-0.0765		0.17
2.13	-0.07425		0.165
2.132	-0.072		0.16
2.134	-0.0675		0.15
2.136	-0.06075		0.135
2.138	-0.05175		0.115
2.14	-0.05175		0.115
2.142	-0.04725		0.105
2.144	-0.0495		0.11
2.146	-0.054		0.12
2.148	-0.05625		0.125
2.15	-0.0585		0.13
2.152	-0.063		0.14
2.154	-0.05625		0.125
2.156	-0.05625		0.125
2.158	-0.054		0.12
2.16	-0.0495		0.11
2.162	-0.04275		0.095
2.164	-0.04275		0.095
2.166	-0.04275		0.095
2.168	-0.04725		0.105
2.17	-0.05175		0.115
2.172	-0.054		0.12
2.174	-0.04725		0.105
2.176	-0.04275		0.095
2.178	-0.036		0.08
2.18	-0.03375		0.075
2.182	-0.03375		0.075
2.184	-0.0405		0.09
2.186	-0.0495		0.11
2.188	-0.05175		0.115
2.19	-0.054		0.12
2.192	-0.05625		0.125
2.194	-0.04275		0.095
2.196	-0.036		0.08
2.198	-0.0315		0.07
2.2	-0.027		0.06
2.202	-0.03825		0.085
2.204	-0.045		0.1
2.206	-0.045		0.1
2.208	-0.04725		0.105
2.21	-0.05175		0.115
2.212	-0.04725		0.105
2.214	-0.04275		0.095
2.216	-0.03825		0.085
2.218	-0.03375		0.075
2.22	-0.0315		0.07
2.222	-0.036		0.08
2.224	-0.03375		0.075
2.226	-0.036		0.08
2.228	-0.0405		0.09
2.23	-0.036		0.08
2.232	-0.0405		0.09
2.234	-0.02475		0.055
2.236	-0.02025		0.045
2.238	-0.009		0.02
2.24	-0.009		0.02
2.242	-0.018		0.04
2.244	-0.0315		0.07
2.246	-0.05175		0.115
2.248	-0.07875		0.175
2.25	-0.10575		0.235
2.252	-0.126		0.28
2.254	-0.14625		0.325
2.256	-0.17325		0.385
2.258	-0.20025		0.445
2.26	-0.24975		0.555
2.262	-0.306		0.68
2.264	-0.369		0.82
2.266	-0.4005		0.89
2.268	-0.387		0.86
2.27	-0.378		0.84
2.272	-0.34875		0.775
2.274	-0.31275		0.695
2.276	-0.26775		0.595
2.278	-0.22725		0.505
2.28	-0.17775		0.395
2.282	-0.11925		0.265
2.284	-0.06975		0.155
2.286	-0.0225		0.05
2.288	-0.0045		0.01
2.29	-0.01575		0.035
2.292	-0.018		0.04
2.294	-0.018		0.04
2.296	-0.02475		0.055
2.298	-0.027		0.06
2.3	-0.03375		0.075
2.302	-0.04275		0.095
2.304	-0.054		0.12
2.306	-0.0585		0.13
2.308	-0.05625		0.125
2.31	-0.0585		0.13
2.312	-0.054		0.12
2.314	-0.04725		0.105
2.316	-0.0405		0.09
2.318	-0.03825		0.085
2.32	-0.0405		0.09
2.322	-0.04725		0.105
2.324	-0.0495		0.11
2.326	-0.0495		0.11
2.328	-0.054		0.12
2.33	-0.0585		0.13
2.332	-0.05625		0.125
2.334	-0.0495		0.11
2.336	-0.0405		0.09
2.338	-0.03375		0.075
2.34	-0.036		0.08
2.342	-0.04275		0.095
2.344	-0.05175		0.115
2.346	-0.05175		0.115
2.348	-0.05175		0.115
2.35	-0.063		0.14
2.352	-0.0495		0.11
2.354	-0.045		0.1
2.356	-0.04275		0.095
2.358	-0.03825		0.085
2.36	-0.045		0.1
2.362	-0.054		0.12
2.364	-0.0585		0.13
2.366	-0.06075		0.135
2.368	-0.063		0.14
2.37	-0.06525		0.145
2.372	-0.0585		0.13
2.374	-0.05175		0.115
2.376	-0.0495		0.11
2.378	-0.04725		0.105
2.38	-0.0495		0.11
2.382	-0.0585		0.13
2.384	-0.063		0.14
2.386	-0.0675		0.15
2.388	-0.06975		0.155
2.39	-0.07425		0.165
2.392	-0.06075		0.135
2.394	-0.05175		0.115
2.396	-0.0495		0.11
2.398	-0.05175		0.115
2.4	-0.0495		0.11
2.402	-0.0585		0.13
2.404	-0.06075		0.135
2.406	-0.063		0.14
2.408	-0.06975		0.155
2.41	-0.07425		0.165
2.412	-0.072		0.16
2.414	-0.0675		0.15
2.416	-0.06525		0.145
2.418	-0.06525		0.145
2.42	-0.06075		0.135
2.422	-0.063		0.14
2.424	-0.07425		0.165
2.426	-0.0765		0.17
2.428	-0.07875		0.175
2.43	-0.0765		0.17
2.432	-0.0765		0.17
2.434	-0.07425		0.165
2.436	-0.07875		0.175
2.438	-0.072		0.16
2.44	-0.07425		0.165
2.442	-0.081		0.18
2.444	-0.0945		0.21
2.446	-0.09675		0.215
2.448	-0.10125		0.225
2.45	-0.10125		0.225
2.452	-0.09675		0.215
2.454	-0.0945		0.21
2.456	-0.099		0.22
2.458	-0.09		0.2
2.46	-0.10125		0.225
2.462	-0.1125		0.25
2.464	-0.11475		0.255
2.466	-0.117		0.26
2.468	-0.1215		0.27
2.47	-0.1215		0.27
2.472	-0.1215		0.27
2.474	-0.11925		0.265
2.476	-0.11925		0.265
2.478	-0.1125		0.25
2.48	-0.11925		0.265
2.482	-0.11925		0.265
2.484	-0.126		0.28
2.486	-0.13275		0.295
2.488	-0.13275		0.295
2.49	-0.1305		0.29
2.492	-0.1305		0.29
2.494	-0.12825		0.285
2.496	-0.126		0.28
2.498	-0.117		0.26
2.5	-0.117		0.26
2.502	-0.11475		0.255
2.504	-0.117		0.26
2.506	-0.117		0.26
2.508	-0.1215		0.27
2.51	-0.117		0.26
2.512	-0.10575		0.235
2.514	-0.099		0.22
2.516	-0.0855		0.19
2.518	-0.0765		0.17
2.52	-0.0765		0.17
2.522	-0.0675		0.15
2.524	-0.06975		0.155
2.526	-0.072		0.16
2.528	-0.0675		0.15
2.53	-0.0585		0.13
2.532	-0.054		0.12
2.534	-0.04275		0.095
2.536	-0.04275		0.095
2.538	-0.03375		0.075
2.54	-0.036		0.08
2.542	-0.03375		0.075
2.544	-0.03375		0.075
2.546	-0.02925		0.065
2.548	-0.02925		0.065
2.55	-0.01575		0.035
2.552	-0.0135		0.03
2.554	-0.009		0.02
2.556	-0.00675		0.015
2.558	0.00225		-0.005
2.56	0		0
2.562	-0.0045		0.01
2.564	-0.0045		0.01
2.566	-0.0045		0.01
2.568	-0.0135		0.03
2.57	-0.00675		0.015
2.572	-0.00225		0.005
2.574	0.0045		-0.01
2.576	0.009		-0.02
2.578	0.0135		-0.03
2.58	0.009		-0.02
2.582	0.00675		-0.015
2.584	0.0045		-0.01
2.586	0.00225		-0.005
2.588	-0.0045		0.01
2.59	0.0045		-0.01
2.592	0.00225		-0.005
2.594	0.01125		-0.025
2.596	0.02475		-0.055
2.598	0.018		-0.04
2.6	0.01575		-0.035
2.602	0.0045		-0.01
2.604	0		0
2.606	-0.00225		0.005
2.608	-0.00225		0.005
2.61	0.00225		-0.005
2.612	0.0135		-0.03
2.614	0.01575		-0.035
2.616	0.018		-0.04
2.618	0.0135		-0.03
2.62	0.01575		-0.035
2.622	0.0135		-0.03
2.624	0.009		-0.02
2.626	0.00675		-0.015
2.628	0.0045		-0.01
2.63	0.01125		-0.025
2.632	0.01575		-0.035
2.634	0.02475		-0.055
2.636	0.02475		-0.055
2.638	0.0225		-0.05
2.64	0.018		-0.04
2.642	0.01125		-0.025
2.644	0.00675		-0.015
2.646	0.009		-0.02
2.648	0.0045		-0.01
2.65	0.01125		-0.025
2.652	0.0135		-0.03
2.654	0.01575		-0.035
2.656	0.0225		-0.05
2.658	0.02475		-0.055
2.66	0.018		-0.04
2.662	0.018		-0.04
2.664	0.009		-0.02
2.666	0.00675		-0.015
2.668	0.009		-0.02
2.67	0.0135		-0.03
2.672	0.02025		-0.045
2.674	0.0225		-0.05
2.676	0.02475		-0.055
2.678	0.02475		-0.055
2.68	0.0225		-0.05
2.682	0.009		-0.02
2.684	0.01125		-0.025
2.686	0.01125		-0.025
2.688	0.00675		-0.015
2.69	0.01575		-0.035
2.692	0.018		-0.04
2.694	0.018		-0.04
2.696	0.018		-0.04
2.698	0.018		-0.04
2.7	0.01125		-0.025
2.702	0.01575		-0.035
2.704	0.0135		-0.03
2.706	0.01125		-0.025
2.708	0.0135		-0.03
2.71	0.02025		-0.045
2.712	0.027		-0.06
2.714	0.027		-0.06
2.716	0.02925		-0.065
2.718	0.027		-0.06
2.72	0.018		-0.04
2.722	0.0135		-0.03
2.724	0.01575		-0.035
2.726	0.0135		-0.03
2.728	0.01125		-0.025
2.73	0.02025		-0.045
2.732	0.02025		-0.045
2.734	0.02925		-0.065
2.736	0.0315		-0.07
2.738	0.02925		-0.065
2.74	0.02475		-0.055
2.742	0.0225		-0.05
2.744	0.01575		-0.035
2.746	0.0135		-0.03
2.748	0.0135		-0.03
2.75	0.02025		-0.045
2.752	0.027		-0.06
2.754	0.02925		-0.065
2.756	0.03375		-0.075
2.758	0.0315		-0.07
2.76	0.0225		-0.05
2.762	0.0225		-0.05
2.764	0.018		-0.04
2.766	0.0135		-0.03
2.768	0.018		-0.04
2.77	0.02025		-0.045
2.772	0.027		-0.06
2.774	0.027		-0.06
2.776	0.02925		-0.065
2.778	0.03375		-0.075
2.78	0.0315		-0.07
2.782	0.027		-0.06
2.784	0.02475		-0.055
2.786	0.02025		-0.045
2.788	0.0225		-0.05
2.79	0.02475		-0.055
2.792	0.02925		-0.065
2.794	0.02925		-0.065
2.796	0.036		-0.08
2.798	0.02925		-0.065
2.8	0.02475		-0.055
2.802	0.018		-0.04
2.804	0.018		-0.04
2.806	0.0135		-0.03
2.808	0.01575		-0.035
2.81	0.0225		-0.05
2.812	0.03375		-0.075
2.814	0.03375		-0.075
2.816	0.04275		-0.095
2.818	0.0405		-0.09
2.82	0.02925		-0.065
2.822	0.02475		-0.055
2.824	0.02025		-0.045
2.826	0.02025		-0.045
2.828	0.02475		-0.055
2.83	0.0315		-0.07
2.832	0.036		-0.08
2.834	0.03375		-0.075
2.836	0.03375		-0.075
2.838	0.02925		-0.065
2.84	0.027		-0.06
2.842	0.02475		-0.055
2.844	0.02025		-0.045
2.846	0.018		-0.04
2.848	0.018		-0.04
2.85	0.02475		-0.055
2.852	0.03375		-0.075
2.854	0.03375		-0.075
2.856	0.036		-0.08
2.858	0.02925		-0.065
2.86	0.027		-0.06
2.862	0.02475		-0.055
2.864	0.027		-0.06
2.866	0.02025		-0.045
2.868	0.02925		-0.065
2.87	0.03375		-0.075
2.872	0.03825		-0.085
2.874	0.0405		-0.09
2.876	0.0405		-0.09
2.878	0.03375		-0.075
2.88	0.02475		-0.055
2.882	0.0135		-0.03
2.884	0.01125		-0.025
2.886	0.02025		-0.045
2.888	0.02925		-0.065
2.89	0.03375		-0.075
2.892	0.03825		-0.085
2.894	0.0405		-0.09
2.896	0.045		-0.1
2.898	0.03825		-0.085
2.9	0.0315		-0.07
2.902	0.027		-0.06
2.904	0.02025		-0.045
2.906	0.018		-0.04
2.908	0.027		-0.06
2.91	0.0315		-0.07
2.912	0.03375		-0.075
2.914	0.03825		-0.085
2.916	0.03825		-0.085
2.918	0.0315		-0.07
2.92	0.027		-0.06
2.922	0.027		-0.06
2.924	0.02475		-0.055
2.926	0.0225		-0.05
2.928	0.02925		-0.065
2.93	0.03375		-0.075
2.932	0.03375		-0.075
2.934	0.036		-0.08
2.936	0.0315		-0.07
2.938	0.027		-0.06
2.94	0.02475		-0.055
2.942	0.02475		-0.055
2.944	0.02025		-0.045
2.946	0.018		-0.04
2.948	0.02925		-0.065
2.95	0.036		-0.08
2.952	0.0405		-0.09
2.954	0.0315		-0.07
2.956	0.036		-0.08
2.958	0.0315		-0.07
2.96	0.0225		-0.05
2.962	0.02025		-0.045
2.964	0.0225		-0.05
2.966	0.02025		-0.045
2.968	0.02475		-0.055
2.97	0.0315		-0.07
2.972	0.03375		-0.075
2.974	0.0315		-0.07
2.976	0.02925		-0.065
2.978	0.027		-0.06
2.98	0.02475		-0.055
2.982	0.02475		-0.055
2.984	0.018		-0.04
2.986	0.02025		-0.045
2.988	0.027		-0.06
2.99	0.02475		-0.055
2.992	0.0225		-0.05
2.994	0.02925		-0.065
2.996	0.02475		-0.055
2.998	0.018		-0.04
3	0.01575		-0.035
3.002	0.00675		-0.015
3.004	0.009		-0.02
3.006	0.0135		-0.03
3.008	0.01575		-0.035
3.01	0.0225		-0.05
3.012	0.0225		-0.05
3.014	0.0225		-0.05
3.016	0.0225		-0.05
3.018	0.018		-0.04
3.02	0.009		-0.02
3.022	-0.00225		0.005
3.024	-0.0045		0.01
3.026	-0.00675		0.015
3.028	0		0
3.03	0		0
3.032	0.00675		-0.015
3.034	0.009		-0.02
3.036	0.009		-0.02
3.038	0.009		-0.02
3.04	0.00225		-0.005
3.042	-0.0045		0.01
3.044	-0.02025		0.045
3.046	-0.01125		0.025
3.048	-0.00225		0.005
3.05	0		0
3.052	0.01125		-0.025
3.054	0.02025		-0.045
3.056	0.018		-0.04
3.058	0.01125		-0.025
3.06	0.01125		-0.025
3.062	0.0135		-0.03
3.064	0.0135		-0.03
3.066	0.0225		-0.05
3.068	0.027		-0.06
3.07	0.03375		-0.075
3.072	0.03825		-0.085
3.074	0.0405		-0.09
3.076	0.0405		-0.09
3.078	0.0315		-0.07
3.08	0.0315		-0.07
3.082	0.02475		-0.055
3.084	0.02025		-0.045
3.086	0.02475		-0.055
3.088	0.0315		-0.07
3.09	0.036		-0.08
3.092	0.036		-0.08
3.094	0.0405		-0.09
3.096	0.0405		-0.09
3.098	0.036		-0.08
3.1	0.027		-0.06
3.102	0.027		-0.06
3.104	0.027		-0.06
3.106	0.036		-0.08
3.108	0.036		-0.08
3.11	0.03825		-0.085
3.112	0.04725		-0.105
3.114	0.0495		-0.11
3.116	0.045		-0.1
3.118	0.036		-0.08
3.12	0.03375		-0.075
3.122	0.02925		-0.065
3.124	0.02475		-0.055
3.126	0.0315		-0.07
3.128	0.03825		-0.085
3.13	0.045		-0.1
3.132	0.0495		-0.11
3.134	0.04725		-0.105
3.136	0.0405		-0.09
3.138	0.03825		-0.085
3.14	0.036		-0.08
3.142	0.03375		-0.075
3.144	0.0225		-0.05
3.146	0.036		-0.08
3.148	0.03825		-0.085
3.15	0.0405		-0.09
3.152	0.0495		-0.11
3.154	0.054		-0.12
3.156	0.04725		-0.105
3.158	0.04275		-0.095
3.16	0.045		-0.1
3.162	0.045		-0.1
3.164	0.04725		-0.105
3.166	0.05625		-0.125
3.168	0.0585		-0.13
3.17	0.05625		-0.125
3.172	0.05625		-0.125
3.174	0.0405		-0.09
3.176	0.009		-0.02
3.178	-0.02025		0.045
3.18	-0.04275		0.095
3.182	-0.06975		0.155
3.184	-0.10575		0.235
3.186	-0.12375		0.275
3.188	-0.162		0.36
3.19	-0.207		0.46
3.192	-0.2655		0.59
3.194	-0.3015		0.67
3.196	-0.30375		0.675
3.198	-0.30375		0.675
3.2	-0.279		0.62
3.202	-0.25875		0.575
3.204	-0.20925		0.465
3.206	-0.171		0.38
3.208	-0.1215		0.27
3.21	-0.06075		0.135
3.212	0.0045		-0.01
3.214	0.0585		-0.13
3.216	0.081		-0.18
3.218	0.08325		-0.185
3.22	0.0675		-0.15
3.222	0.06075		-0.135
3.224	0.0495		-0.11
3.226	0.03825		-0.085
3.228	0.0315		-0.07
3.23	0.0315		-0.07
3.232	0.03375		-0.075
3.234	0.027		-0.06
3.236	0.0225		-0.05
3.238	0.0225		-0.05
3.24	0.01575		-0.035
3.242	0.0135		-0.03
3.244	0.01575		-0.035
3.246	0.0225		-0.05
3.248	0.027		-0.06
3.25	0.027		-0.06
3.252	0.027		-0.06
3.254	0.02925		-0.065
3.256	0.0225		-0.05
3.258	0.018		-0.04
3.26	0.0135		-0.03
3.262	0.018		-0.04
3.264	0.0135		-0.03
3.266	0.02025		-0.045
3.268	0.02925		-0.065
3.27	0.027		-0.06
3.272	0.02925		-0.065
3.274	0.018		-0.04
3.276	0.018		-0.04
3.278	0.009		-0.02
3.28	0.0045		-0.01
3.282	0.00675		-0.015
3.284	0.00675		-0.015
3.286	0.0135		-0.03
3.288	0.02025		-0.045
3.29	0.018		-0.04
3.292	0.02475		-0.055
3.294	0.02025		-0.045
3.296	0.0135		-0.03
3.298	0.0045		-0.01
3.3	-0.00225		0.005
3.302	-0.0045		0.01
3.304	0		0
3.306	0.01125		-0.025
3.308	0.0135		-0.03
3.31	0.01575		-0.035
3.312	0.02925		-0.065
3.314	0.018		-0.04
3.316	0.00675		-0.015
3.318	0.00675		-0.015
3.32	0.00225		-0.005
3.322	-0.00675		0.015
3.324	-0.0045		0.01
3.326	-0.00225		0.005
3.328	0.00225		-0.005
3.33	0.0045		-0.01
3.332	0.00675		-0.015
3.334	0		0
3.336	0.00225		-0.005
3.338	0		0
3.34	-0.0045		0.01
3.342	-0.01125		0.025
3.344	-0.0135		0.03
3.346	-0.00675		0.015
3.348	-0.00675		0.015
3.35	0		0
3.352	-0.0045		0.01
3.354	-0.0045		0.01
3.356	-0.0135		0.03
3.358	-0.02025		0.045
3.36	-0.02475		0.055
3.362	-0.02925		0.065
3.364	-0.0315		0.07
3.366	-0.02925		0.065
3.368	-0.027		0.06
3.37	-0.0225		0.05
3.372	-0.02925		0.065
3.374	-0.0315		0.07
3.376	-0.045		0.1
3.378	-0.0495		0.11
3.38	-0.05175		0.115
3.382	-0.0585		0.13
3.384	-0.0585		0.13
3.386	-0.054		0.12
3.388	-0.05175		0.115
3.39	-0.05175		0.115
3.392	-0.05625		0.125
3.394	-0.063		0.14
3.396	-0.06975		0.155
3.398	-0.0765		0.17
3.4	-0.07425		0.165
3.402	-0.07875		0.175
3.404	-0.07425		0.165
3.406	-0.0765		0.17
3.408	-0.08325		0.185
3.41	-0.081		0.18
3.412	-0.07875		0.175
3.414	-0.08775		0.195
3.416	-0.09		0.2
3.418	-0.0945		0.21
3.42	-0.08775		0.195
3.422	-0.09675		0.215
3.424	-0.08775		0.195
3.426	-0.08775		0.195
3.428	-0.0855		0.19
3.43	-0.0765		0.17
3.432	-0.07425		0.165
3.434	-0.0765		0.17
3.436	-0.08325		0.185
3.438	-0.0765		0.17
3.44	-0.07875		0.175
3.442	-0.0765		0.17
3.444	-0.07875		0.175
3.446	-0.0585		0.13
3.448	-0.05625		0.125
3.45	-0.054		0.12
3.452	-0.04725		0.105
3.454	-0.04725		0.105
3.456	-0.0495		0.11
3.458	-0.04725		0.105
3.46	-0.045		0.1
3.462	-0.0405		0.09
3.464	-0.03375		0.075
3.466	-0.02925		0.065
3.468	-0.02025		0.045
3.47	-0.01125		0.025
3.472	-0.00225		0.005
3.474	-0.00225		0.005
3.476	0.00225		-0.005
3.478	-0.00225		0.005
3.48	-0.00225		0.005
3.482	0		0
3.484	0.00675		-0.015
3.486	0.01125		-0.025
3.488	0.0135		-0.03
3.49	0.02025		-0.045
3.492	0.0225		-0.05
3.494	0.0225		-0.05
3.496	0.01575		-0.035
3.498	0.01575		-0.035
3.5	0.009		-0.02
3.502	0.009		-0.02
3.504	0.01575		-0.035
3.506	0.018		-0.04
3.508	0.02475		-0.055
3.51	0.02475		-0.055
3.512	0.02025		-0.045
3.514	0.018		-0.04
3.516	0.02025		-0.045
3.518	0.0225		-0.05
3.52	0.02475		-0.055
3.522	0.02475		-0.055
3.524	0.03375		-0.075
3.526	0.03375		-0.075
3.528	0.0315		-0.07
3.53	0.03375		-0.075
3.532	0.03375		-0.075
3.534	0.027		-0.06
3.536	0.02475		-0.055
3.538	0.02475		-0.055
3.54	0.0225		-0.05
3.542	0.02025		-0.045
3.544	0.0225		-0.05
3.546	0.027		-0.06
3.548	0.02925		-0.065
3.55	0.036		-0.08
3.552	0.0315		-0.07
3.554	0.027		-0.06
3.556	0.02475		-0.055
3.558	0.01575		-0.035
3.56	0.009		-0.02
3.562	0.01125		-0.025
3.564	0.02025		-0.045
3.566	0.0315		-0.07
3.568	0.0315		-0.07
3.57	0.03375		-0.075
3.572	0.02475		-0.055
3.574	0.02025		-0.045
3.576	0.009		-0.02
3.578	0.01575		-0.035
3.58	0.01125		-0.025
3.582	0.01125		-0.025
3.584	0.018		-0.04
3.586	0.02475		-0.055
3.588	0.02925		-0.065
3.59	0.0315		-0.07
3.592	0.02925		-0.065
3.594	0.02025		-0.045
3.596	0.018		-0.04
3.598	0.018		-0.04
3.6	0.01125		-0.025
3.602	0.0045		-0.01
3.604	0.01575		-0.035
3.606	0.02025		-0.045
3.608	0.0225		-0.05
3.61	0.02925		-0.065
3.612	0.02925		-0.065
3.614	0.0225		-0.05
3.616	0.01575		-0.035
3.618	0.01575		-0.035
3.62	0.009		-0.02
3.622	0.00675		-0.015
3.624	0.0135		-0.03
3.626	0.01575		-0.035
3.628	0.02025		-0.045
3.63	0.0225		-0.05
3.632	0.0225		-0.05
3.634	0.0135		-0.03
3.636	0.0135		-0.03
3.638	0.0135		-0.03
3.64	0.01125		-0.025
3.642	0.0045		-0.01
3.644	0.018		-0.04
3.646	0.01575		-0.035
3.648	0.018		-0.04
3.65	0.0225		-0.05
3.652	0.01575		-0.035
3.654	0.01575		-0.035
3.656	0.00675		-0.015
3.658	0.01125		-0.025
3.66	0.00675		-0.015
3.662	0.00675		-0.015
3.664	0.01125		-0.025
3.666	0.018		-0.04
3.668	0.018		-0.04
3.67	0.0225		-0.05
3.672	0.02475		-0.055
3.674	0.018		-0.04
3.676	0.0135		-0.03
3.678	0.01125		-0.025
3.68	0.01125		-0.025
3.682	0.0135		-0.03
3.684	0.01575		-0.035
3.686	0.027		-0.06
3.688	0.027		-0.06
3.69	0.0315		-0.07
3.692	0.027		-0.06
3.694	0.01575		-0.035
3.696	0.0135		-0.03
3.698	0.0045		-0.01
3.7	0.01125		-0.025
3.702	0.01125		-0.025
3.704	0.018		-0.04
3.706	0.02475		-0.055
3.708	0.0315		-0.07
3.71	0.03375		-0.075
3.712	0.018		-0.04
3.714	0.02025		-0.045
3.716	0.018		-0.04
3.718	0.02025		-0.045
3.72	0.0135		-0.03
3.722	0.01575		-0.035
3.724	0.0225		-0.05
3.726	0.02475		-0.055
3.728	0.02925		-0.065
3.73	0.0315		-0.07
3.732	0.02925		-0.065
3.734	0.027		-0.06
3.736	0.0225		-0.05
3.738	0.018		-0.04
3.74	0.0135		-0.03
3.742	0.02025		-0.045
3.744	0.02475		-0.055
3.746	0.0225		-0.05
3.748	0.027		-0.06
3.75	0.0315		-0.07
3.752	0.02025		-0.045
3.754	0.018		-0.04
3.756	0.0135		-0.03
3.758	0.01125		-0.025
3.76	0.018		-0.04
3.762	0.018		-0.04
3.764	0.02475		-0.055
3.766	0.02475		-0.055
3.768	0.02925		-0.065
3.77	0.02925		-0.065
3.772	0.02925		-0.065
3.774	0.027		-0.06
3.776	0.01125		-0.025
3.778	0.0135		-0.03
3.78	0.00675		-0.015
3.782	0.018		-0.04
3.784	0.027		-0.06
3.786	0.02925		-0.065
3.788	0.0315		-0.07
3.79	0.03375		-0.075
3.792	0.027		-0.06
3.794	0.0225		-0.05
3.796	0.01125		-0.025
3.798	0.01125		-0.025
3.8	0.01125		-0.025
3.802	0.0135		-0.03
3.804	0.02025		-0.045
3.806	0.02475		-0.055
3.808	0.027		-0.06
3.81	0.036		-0.08
3.812	0.03375		-0.075
3.814	0.0315		-0.07
3.816	0.027		-0.06
3.818	0.01575		-0.035
3.82	0.01575		-0.035
3.822	0.02475		-0.055
3.824	0.02475		-0.055
3.826	0.02925		-0.065
3.828	0.03375		-0.075
3.83	0.03375		-0.075
3.832	0.02925		-0.065
3.834	0.02025		-0.045
3.836	0.01575		-0.035
3.838	0.01125		-0.025
3.84	0.01575		-0.035
3.842	0.01575		-0.035
3.844	0.018		-0.04
3.846	0.02025		-0.045
3.848	0.027		-0.06
3.85	0.027		-0.06
3.852	0.018		-0.04
3.854	0.01575		-0.035
3.856	0.0135		-0.03
3.858	0.009		-0.02
3.86	0.00675		-0.015
3.862	0.0135		-0.03
3.864	0.01575		-0.035
3.866	0.018		-0.04
3.868	0.0225		-0.05
3.87	0.02025		-0.045
3.872	0.0225		-0.05
3.874	0.01125		-0.025
3.876	-0.00225		0.005
3.878	-0.0045		0.01
3.88	-0.009		0.02
3.882	-0.0135		0.03
3.884	-0.01575		0.035
3.886	-0.0135		0.03
3.888	-0.01575		0.035
3.89	-0.01125		0.025
3.892	-0.018		0.04
3.894	-0.02025		0.045
3.896	-0.02475		0.055
3.898	-0.02925		0.065
3.9	-0.03375		0.075
3.902	-0.02925		0.065
3.904	-0.02475		0.055
3.906	-0.02025		0.045
3.908	-0.018		0.04
3.91	-0.02475		0.055
3.912	-0.02925		0.065
3.914	-0.0405		0.09
3.916	-0.04725		0.105
3.918	-0.05625		0.125
3.92	-0.0585		0.13
3.922	-0.04275		0.095
3.924	-0.0405		0.09
3.926	-0.045		0.1
3.928	-0.0405		0.09
3.93	-0.04275		0.095
3.932	-0.045		0.1
3.934	-0.0495		0.11
3.936	-0.05625		0.125
3.938	-0.06075		0.135
3.94	-0.06525		0.145
3.942	-0.06525		0.145
3.944	-0.0585		0.13
3.946	-0.06075		0.135
3.948	-0.054		0.12
3.95	-0.05625		0.125
3.952	-0.05625		0.125
3.954	-0.06075		0.135
3.956	-0.06525		0.145
3.958	-0.06975		0.155
3.96	-0.0765		0.17
3.962	-0.072		0.16
3.964	-0.07425		0.165
3.966	-0.07425		0.165
3.968	-0.06975		0.155
3.97	-0.06975		0.155
3.972	-0.072		0.16
3.974	-0.06975		0.155
3.976	-0.07425		0.165
3.978	-0.081		0.18
3.98	-0.07425		0.165
3.982	-0.072		0.16
3.984	-0.072		0.16
3.986	-0.072		0.16
3.988	-0.063		0.14
3.99	-0.0585		0.13
3.992	-0.063		0.14
3.994	-0.063		0.14
3.996	-0.06075		0.135
3.998	-0.06075		0.135
4	-0.0585		0.13
4.002	-0.0495		0.11
4.004	-0.0495		0.11
4.006	-0.04275		0.095
4.008	-0.0405		0.09
4.01	-0.04275		0.095
4.012	-0.04725		0.105
4.014	-0.054		0.12
4.016	-0.05625		0.125
4.018	-0.054		0.12
4.02	-0.0495		0.11
4.022	-0.04725		0.105
4.024	-0.0405		0.09
4.026	-0.03825		0.085
4.028	-0.0315		0.07
4.03	-0.03825		0.085
4.032	-0.04725		0.105
4.034	-0.045		0.1
4.036	-0.04725		0.105
4.038	-0.045		0.1
4.04	-0.04275		0.095
4.042	-0.036		0.08
4.044	-0.0315		0.07
4.046	-0.03375		0.075
4.048	-0.02475		0.055
4.05	-0.0315		0.07
4.052	-0.0315		0.07
4.054	-0.036		0.08
4.056	-0.03825		0.085
4.058	-0.045		0.1
4.06	-0.03825		0.085
4.062	-0.02925		0.065
4.064	-0.027		0.06
4.066	-0.0225		0.05
4.068	-0.0225		0.05
4.07	-0.02475		0.055
4.072	-0.0315		0.07
4.074	-0.036		0.08
4.076	-0.03825		0.085
4.078	-0.03825		0.085
4.08	-0.0315		0.07
4.082	-0.02925		0.065
4.084	-0.02925		0.065
4.086	-0.02025		0.045
4.088	-0.02925		0.065
4.09	-0.02925		0.065
4.092	-0.02925		0.065
4.094	-0.0315		0.07
4.096	-0.027		0.06
4.098	-0.0315		0.07
4.1	-0.027		0.06
4.102	-0.01575		0.035
4.104	-0.0135		0.03
4.106	-0.018		0.04
4.108	-0.02475		0.055
4.11	-0.03825		0.085
4.112	-0.0585		0.13
4.114	-0.08325		0.185
4.116	-0.10575		0.235
4.118	-0.1305		0.29
4.12	-0.1485		0.33
4.122	-0.17775		0.395
4.124	-0.225		0.5
4.126	-0.27225		0.605
4.128	-0.31725		0.705
4.13	-0.33975		0.755
4.132	-0.33975		0.755
4.134	-0.333		0.74
4.136	-0.31275		0.695
4.138	-0.27675		0.615
4.14	-0.23175		0.515
4.142	-0.1935		0.43
4.144	-0.14625		0.325
4.146	-0.0855		0.19
4.148	-0.0315		0.07
4.15	0.00675		-0.015
4.152	0.02025		-0.045
4.154	0.018		-0.04
4.156	0.009		-0.02
4.158	-0.00675		0.015
4.16	-0.01125		0.025
4.162	-0.01125		0.025
4.164	-0.018		0.04
4.166	-0.027		0.06
4.168	-0.03825		0.085
4.17	-0.0405		0.09
4.172	-0.045		0.1
4.174	-0.054		0.12
4.176	-0.0495		0.11
4.178	-0.0405		0.09
4.18	-0.03375		0.075
4.182	-0.0315		0.07
4.184	-0.02925		0.065
4.186	-0.0315		0.07
4.188	-0.0315		0.07
4.19	-0.03825		0.085
4.192	-0.0405		0.09
4.194	-0.04725		0.105
4.196	-0.04725		0.105
4.198	-0.0495		0.11
4.2	-0.04275		0.095
4.202	-0.04275		0.095
4.204	-0.03825		0.085
4.206	-0.03825		0.085
4.208	-0.03825		0.085
4.21	-0.045		0.1
4.212	-0.0495		0.11
4.214	-0.054		0.12
4.216	-0.0585		0.13
4.218	-0.0495		0.11
4.22	-0.0405		0.09
4.222	-0.03375		0.075
4.224	-0.0315		0.07
4.226	-0.0315		0.07
4.228	-0.03375		0.075
4.23	-0.04275		0.095
4.232	-0.05175		0.115
4.234	-0.05625		0.125
4.236	-0.0585		0.13
4.238	-0.05625		0.125
4.24	-0.05175		0.115
4.242	-0.04725		0.105
4.244	-0.045		0.1
4.246	-0.04725		0.105
4.248	-0.0495		0.11
4.25	-0.054		0.12
4.252	-0.05625		0.125
4.254	-0.05625		0.125
4.256	-0.0585		0.13
4.258	-0.0585		0.13
4.26	-0.04725		0.105
4.262	-0.04725		0.105
4.264	-0.054		0.12
4.266	-0.04725		0.105
4.268	-0.0495		0.11
4.27	-0.054		0.12
4.272	-0.0585		0.13
4.274	-0.06525		0.145
4.276	-0.07425		0.165
4.278	-0.0675		0.15
4.28	-0.063		0.14
4.282	-0.0585		0.13
4.284	-0.05625		0.125
4.286	-0.0585		0.13
4.288	-0.0585		0.13
4.29	-0.063		0.14
4.292	-0.063		0.14
4.294	-0.06525		0.145
4.296	-0.07425		0.165
4.298	-0.0765		0.17
4.3	-0.072		0.16
4.302	-0.072		0.16
4.304	-0.07425		0.165
4.306	-0.072		0.16
4.308	-0.08325		0.185
4.31	-0.081		0.18
4.312	-0.08775		0.195
4.314	-0.09		0.2
4.316	-0.0945		0.21
4.318	-0.09225		0.205
4.32	-0.09		0.2
4.322	-0.09		0.2
4.324	-0.09		0.2
4.326	-0.09		0.2
4.328	-0.09675		0.215
4.33	-0.10125		0.225
4.332	-0.1125		0.25
4.334	-0.117		0.26
4.336	-0.1215		0.27
4.338	-0.11475		0.255
4.34	-0.11475		0.255
4.342	-0.117		0.26
4.344	-0.117		0.26
4.346	-0.11025		0.245
4.348	-0.117		0.26
4.35	-0.1215		0.27
4.352	-0.11925		0.265
4.354	-0.1215		0.27
4.356	-0.11475		0.255
4.358	-0.11925		0.265
4.36	-0.117		0.26
4.362	-0.11025		0.245
4.364	-0.108		0.24
4.366	-0.10575		0.235
4.368	-0.108		0.24
4.37	-0.11475		0.255
4.372	-0.10575		0.235
4.374	-0.108		0.24
4.376	-0.108		0.24
4.378	-0.099		0.22
4.38	-0.09		0.2
4.382	-0.081		0.18
4.384	-0.07425		0.165
4.386	-0.0675		0.15
4.388	-0.06975		0.155
4.39	-0.06975		0.155
4.392	-0.0675		0.15
4.394	-0.06075		0.135
4.396	-0.054		0.12
4.398	-0.0405		0.09
4.4	-0.03825		0.085
4.402	-0.0315		0.07
4.404	-0.0225		0.05
4.406	-0.018		0.04
4.408	-0.02025		0.045
4.41	-0.02025		0.045
4.412	-0.018		0.04
4.414	-0.0225		0.05
4.416	-0.02025		0.045
4.418	-0.0135		0.03
4.42	-0.0045		0.01
4.422	0.00225		-0.005
4.424	0.00675		-0.015
4.426	0.01125		-0.025
4.428	0.00675		-0.015
4.43	0.0045		-0.01
4.432	0		0
4.434	-0.00225		0.005
4.436	-0.00225		0.005
4.438	0.009		-0.02
4.44	0.0135		-0.03
4.442	0.02025		-0.045
4.444	0.027		-0.06
4.446	0.018		-0.04
4.448	0.018		-0.04
4.45	0.009		-0.02
4.452	0.00675		-0.015
4.454	0.00675		-0.015
4.456	0.0045		-0.01
4.458	0.009		-0.02
4.46	0.0225		-0.05
4.462	0.02475		-0.055
4.464	0.03375		-0.075
4.466	0.027		-0.06
4.468	0.02475		-0.055
4.47	0.01575		-0.035
4.472	0.0135		-0.03
4.474	0.0135		-0.03
4.476	0.01125		-0.025
4.478	0.018		-0.04
4.48	0.027		-0.06
4.482	0.02475		-0.055
4.484	0.02475		-0.055
4.486	0.02925		-0.065
4.488	0.027		-0.06
4.49	0.0225		-0.05
4.492	0.0135		-0.03
4.494	0.009		-0.02
4.496	0.009		-0.02
4.498	0.0135		-0.03
4.5	0.018		-0.04
4.502	0.0225		-0.05
4.504	0.02925		-0.065
4.506	0.0315		-0.07
4.508	0.02475		-0.055
4.51	0.01575		-0.035
4.512	0.01125		-0.025
4.514	0.009		-0.02
4.516	0.00675		-0.015
4.518	0.0135		-0.03
4.52	0.02025		-0.045
4.522	0.02025		-0.045
4.524	0.0225		-0.05
4.526	0.018		-0.04
4.528	0.01125		-0.025
4.53	0.00675		-0.015
4.532	0.00675		-0.015
4.534	0		0
4.536	0.0045		-0.01
4.538	0.01575		-0.035
4.54	0.02475		-0.055
4.542	0.018		-0.04
4.544	0.02925		-0.065
4.546	0.018		-0.04
4.548	0.0225		-0.05
4.55	0.01575		-0.035
4.552	0.0045		-0.01
4.554	-0.00225		0.005
4.556	0.009		-0.02
4.558	0.018		-0.04
4.56	0.018		-0.04
4.562	0.018		-0.04
4.564	0.02925		-0.065
4.566	0.02025		-0.045
4.568	0.01575		-0.035
4.57	0.01125		-0.025
4.572	0.01125		-0.025
4.574	0.0045		-0.01
4.576	0.00675		-0.015
4.578	0.01575		-0.035
4.58	0.01575		-0.035
4.582	0.02025		-0.045
4.584	0.0225		-0.05
4.586	0.0225		-0.05
4.588	0.018		-0.04
4.59	0.018		-0.04
4.592	0.02025		-0.045
4.594	0.01125		-0.025
4.596	0.018		-0.04
4.598	0.02025		-0.045
4.6	0.02475		-0.055
4.602	0.0315		-0.07
4.604	0.0315		-0.07
4.606	0.027		-0.06
4.608	0.02025		-0.045
4.61	0.01575		-0.035
4.612	0.0135		-0.03
4.614	0.01125		-0.025
4.616	0.01125		-0.025
4.618	0.01575		-0.035
4.62	0.0225		-0.05
4.622	0.03375		-0.075
4.624	0.045		-0.1
4.626	0.0315		-0.07
4.628	0.0225		-0.05
4.63	0.0225		-0.05
4.632	0.018		-0.04
4.634	0.01575		-0.035
4.636	0.018		-0.04
4.638	0.0225		-0.05
4.64	0.027		-0.06
4.642	0.03375		-0.075
4.644	0.0315		-0.07
4.646	0.0225		-0.05
4.648	0.0225		-0.05
4.65	0.0225		-0.05
4.652	0.018		-0.04
4.654	0.01575		-0.035
4.656	0.02025		-0.045
4.658	0.027		-0.06
4.66	0.0315		-0.07
4.662	0.03375		-0.075
4.664	0.036		-0.08
4.666	0.03375		-0.075
4.668	0.018		-0.04
4.67	0.02025		-0.045
4.672	0.018		-0.04
4.674	0.01575		-0.035
4.676	0.02475		-0.055
4.678	0.02475		-0.055
4.68	0.02925		-0.065
4.682	0.03375		-0.075
4.684	0.03375		-0.075
4.686	0.027		-0.06
4.688	0.02925		-0.065
4.69	0.027		-0.06
4.692	0.02475		-0.055
4.694	0.02025		-0.045
4.696	0.02025		-0.045
4.698	0.027		-0.06
4.7	0.036		-0.08
4.702	0.0315		-0.07
4.704	0.03375		-0.075
4.706	0.027		-0.06
4.708	0.02475		-0.055
4.71	0.02925		-0.065
4.712	0.02025		-0.045
4.714	0.02025		-0.045
4.716	0.0225		-0.05
4.718	0.02925		-0.065
4.72	0.02925		-0.065
4.722	0.03375		-0.075
4.724	0.036		-0.08
4.726	0.02925		-0.065
4.728	0.02475		-0.055
4.73	0.0225		-0.05
4.732	0.0225		-0.05
4.734	0.018		-0.04
4.736	0.027		-0.06
4.738	0.02925		-0.065
4.74	0.03375		-0.075
4.742	0.03825		-0.085
4.744	0.036		-0.08
4.746	0.02925		-0.065
4.748	0.027		-0.06
4.75	0.02475		-0.055
4.752	0.0225		-0.05
4.754	0.01575		-0.035
4.756	0.02925		-0.065
4.758	0.0315		-0.07
4.76	0.02475		-0.055
4.762	0.03825		-0.085
4.764	0.0315		-0.07
4.766	0.02925		-0.065
4.768	0.02025		-0.045
4.77	0.027		-0.06
4.772	0.0225		-0.05
4.774	0.02025		-0.045
4.776	0.0315		-0.07
4.778	0.036		-0.08
4.78	0.03375		-0.075
4.782	0.03825		-0.085
4.784	0.0405		-0.09
4.786	0.0315		-0.07
4.788	0.0225		-0.05
4.79	0.02475		-0.055
4.792	0.02025		-0.045
4.794	0.018		-0.04
4.796	0.0225		-0.05
4.798	0.03375		-0.075
4.8	0.03375		-0.075
4.802	0.0405		-0.09
4.804	0.0405		-0.09
4.806	0.03375		-0.075
4.808	0.0315		-0.07
4.81	0.027		-0.06
4.812	0.02025		-0.045
4.814	0.0225		-0.05
4.816	0.02925		-0.065
4.818	0.036		-0.08
4.82	0.03375		-0.075
4.822	0.03375		-0.075
4.824	0.02925		-0.065
4.826	0.02925		-0.065
4.828	0.02925		-0.065
4.83	0.02925		-0.065
4.832	0.0225		-0.05
4.834	0.02925		-0.065
4.836	0.03375		-0.075
4.838	0.03375		-0.075
4.84	0.03375		-0.075
4.842	0.03825		-0.085
4.844	0.03375		-0.075
4.846	0.027		-0.06
4.848	0.018		-0.04
4.85	0.018		-0.04
4.852	0.0135		-0.03
4.854	0.0135		-0.03
4.856	0.02025		-0.045
4.858	0.02475		-0.055
4.86	0.02475		-0.055
4.862	0.0225		-0.05
4.864	0.02025		-0.045
4.866	0.018		-0.04
4.868	0.01575		-0.035
4.87	0.00675		-0.015
4.872	0		0
4.874	0.00225		-0.005
4.876	0.00675		-0.015
4.878	0.009		-0.02
4.88	0.009		-0.02
4.882	0.00675		-0.015
4.884	0		0
4.886	0.0045		-0.01
4.888	-0.00225		0.005
4.89	-0.0045		0.01
4.892	-0.0045		0.01
4.894	0.00225		-0.005
4.896	0.0045		-0.01
4.898	0.00675		-0.015
4.9	0.00675		-0.015
4.902	0.01125		-0.025
4.904	0.009		-0.02
4.906	0.0045		-0.01
4.908	-0.0045		0.01
4.91	0		0
4.912	0.00225		-0.005
4.914	0.0135		-0.03
4.916	0.02025		-0.045
4.918	0.027		-0.06
4.92	0.02925		-0.065
4.922	0.036		-0.08
4.924	0.036		-0.08
4.926	0.0315		-0.07
4.928	0.02925		-0.065
4.93	0.0225		-0.05
4.932	0.02025		-0.045
4.934	0.027		-0.06
4.936	0.02925		-0.065
4.938	0.03375		-0.075
4.94	0.0405		-0.09
4.942	0.04725		-0.105
4.944	0.03825		-0.085
4.946	0.02925		-0.065
4.948	0.02925		-0.065
4.95	0.0315		-0.07
4.952	0.02475		-0.055
4.954	0.027		-0.06
4.956	0.03375		-0.075
4.958	0.04275		-0.095
4.96	0.04725		-0.105
4.962	0.054		-0.12
4.964	0.0495		-0.11
4.966	0.03375		-0.075
4.968	0.036		-0.08
4.97	0.0315		-0.07
4.972	0.027		-0.06
4.974	0.036		-0.08
4.976	0.04275		-0.095
4.978	0.0495		-0.11
4.98	0.045		-0.1
4.982	0.0405		-0.09
4.984	0.04275		-0.095
4.986	0.03825		-0.085
4.988	0.03375		-0.075
4.99	0.03375		-0.075
4.992	0.02925		-0.065
4.994	0.036		-0.08
4.996	0.045		-0.1
4.998	0.045		-0.1
5	0.045		-0.1
5.002	0.045		-0.1
5.004	0.0405		-0.09
5.006	0.0405		-0.09
5.008	0.036		-0.08
5.01	0.04275		-0.095
5.012	0.0405		-0.09
5.014	0.045		-0.1
5.016	0.04725		-0.105
5.018	0.05625		-0.125
5.02	0.06525		-0.145
5.022	0.06525		-0.145
5.024	0.05175		-0.115
5.026	0.03375		-0.075
5.028	0.009		-0.02
5.03	-0.01575		0.035
5.032	-0.0405		0.09
5.034	-0.054		0.12
5.036	-0.081		0.18
5.038	-0.11025		0.245
5.04	-0.14625		0.325
5.042	-0.19125		0.425
5.044	-0.24975		0.555
5.046	-0.288		0.64
5.048	-0.2925		0.65
5.05	-0.29025		0.645
5.052	-0.26775		0.595
5.054	-0.234		0.52
5.056	-0.19125		0.425
5.058	-0.15075		0.335
5.06	-0.11025		0.245
5.062	-0.0585		0.13
5.064	-0.009		0.02
5.066	0.0405		-0.09
5.068	0.07425		-0.165
5.07	0.0765		-0.17
5.072	0.06525		-0.145
5.074	0.05625		-0.125
5.076	0.05625		-0.125
5.078	0.05175		-0.115
5.08	0.04725		-0.105
5.082	0.04275		-0.095
5.084	0.0315		-0.07
5.086	0.027		-0.06
5.088	0.018		-0.04
5.09	0.018		-0.04
5.092	0.01575		-0.035
5.094	0.02475		-0.055
5.096	0.0315		-0.07
5.098	0.03825		-0.085
5.1	0.03825		-0.085
5.102	0.036		-0.08
5.104	0.02925		-0.065
5.106	0.0225		-0.05
5.108	0.01575		-0.035
5.11	0.01125		-0.025
5.112	0.01125		-0.025
5.114	0.0135		-0.03
5.116	0.01125		-0.025
5.118	0.027		-0.06
5.12	0.03375		-0.075
5.122	0.0315		-0.07
5.124	0.027		-0.06
5.126	0.0225		-0.05
5.128	0.0225		-0.05
5.13	0.0135		-0.03
5.132	0.0135		-0.03
5.134	0.018		-0.04
5.136	0.0225		-0.05
5.138	0.0225		-0.05
5.14	0.027		-0.06
5.142	0.0225		-0.05
5.144	0.02025		-0.045
5.146	0.0135		-0.03
5.148	0.00675		-0.015
5.15	0.0045		-0.01
5.152	0.0135		-0.03
5.154	0.01575		-0.035
5.156	0.01575		-0.035
5.158	0.018		-0.04
5.16	0.018		-0.04
5.162	0.0135		-0.03
5.164	0.00675		-0.015
5.166	0.0045		-0.01
5.168	0.00225		-0.005
5.17	-0.0045		0.01
5.172	-0.00225		0.005
5.174	0.009		-0.02
5.176	0.0135		-0.03
5.178	0.018		-0.04
5.18	0.02025		-0.045
5.182	0.02025		-0.045
5.184	0.009		-0.02
5.186	0.0045		-0.01
5.188	-0.00225		0.005
5.19	-0.009		0.02
5.192	-0.00675		0.015
5.194	0		0
5.196	0.00225		-0.005
5.198	0.00675		-0.015
5.2	0.0045		-0.01
5.202	-0.00225		0.005
5.204	-0.00675		0.015
5.206	-0.009		0.02
5.208	-0.0135		0.03
5.21	-0.0225		0.05
5.212	-0.01575		0.035
5.214	-0.009		0.02
5.216	-0.01125		0.025
5.218	-0.0135		0.03
5.22	-0.0135		0.03
5.222	-0.0225		0.05
5.224	-0.027		0.06
5.226	-0.036		0.08
5.228	-0.03825		0.085
5.23	-0.0495		0.11
5.232	-0.045		0.1
5.234	-0.036		0.08
5.236	-0.03375		0.075
5.238	-0.0315		0.07
5.24	-0.036		0.08
5.242	-0.04275		0.095
5.244	-0.05175		0.115
5.246	-0.05625		0.125
5.248	-0.0675		0.15
5.25	-0.072		0.16
5.252	-0.072		0.16
5.254	-0.072		0.16
5.256	-0.06525		0.145
5.258	-0.06525		0.145
5.26	-0.06075		0.135
5.262	-0.072		0.16
5.264	-0.07875		0.175
5.266	-0.08325		0.185
5.268	-0.0855		0.19
5.27	-0.08775		0.195
5.272	-0.0855		0.19
5.274	-0.08325		0.185
5.276	-0.07875		0.175
5.278	-0.0765		0.17
5.28	-0.07425		0.165
5.282	-0.081		0.18
5.284	-0.07875		0.175
5.286	-0.07875		0.175
5.288	-0.0765		0.17
5.29	-0.07875		0.175
5.292	-0.06975		0.155
5.294	-0.06525		0.145
5.296	-0.0585		0.13
5.298	-0.05175		0.115
5.3	-0.04725		0.105
5.302	-0.0495		0.11
5.304	-0.05175		0.115
5.306	-0.0495		0.11
5.308	-0.0495		0.11
5.31	-0.04725		0.105
5.312	-0.036		0.08
5.314	-0.02925		0.065
5.316	-0.02025		0.045
5.318	-0.00675		0.015
5.32	-0.0045		0.01
5.322	-0.00675		0.015
5.324	-0.00675		0.015
5.326	-0.00675		0.015
5.328	0		0
5.33	-0.00675		0.015
5.332	-0.00675		0.015
5.334	0.009		-0.02
5.336	0.01575		-0.035
5.338	0.02025		-0.045
5.34	0.018		-0.04
5.342	0.018		-0.04
5.344	0.01575		-0.035
5.346	0.018		-0.04
5.348	0.01125		-0.025
5.35	0.009		-0.02
5.352	0.02025		-0.045
5.354	0.0225		-0.05
5.356	0.02925		-0.065
5.358	0.0315		-0.07
5.36	0.02925		-0.065
5.362	0.02025		-0.045
5.364	0.02025		-0.045
5.366	0.02475		-0.055
5.368	0.02025		-0.045
5.37	0.02025		-0.045
5.372	0.02475		-0.055
5.374	0.0315		-0.07
5.376	0.036		-0.08
5.378	0.03825		-0.085
5.38	0.03825		-0.085
5.382	0.03825		-0.085
5.384	0.027		-0.06
5.386	0.02925		-0.065
5.388	0.02025		-0.045
5.39	0.0225		-0.05
5.392	0.027		-0.06
5.394	0.03375		-0.075
5.396	0.0405		-0.09
5.398	0.03825		-0.085
5.4	0.0315		-0.07
5.402	0.02925		-0.065
5.404	0.027		-0.06
5.406	0.018		-0.04
5.408	0.02025		-0.045
5.41	0.0225		-0.05
5.412	0.02475		-0.055
5.414	0.027		-0.06
5.416	0.0315		-0.07
5.418	0.036		-0.08
5.42	0.03375		-0.075
5.422	0.027		-0.06
5.424	0.02925		-0.065
5.426	0.0225		-0.05
5.428	0.0135		-0.03
5.43	0.018		-0.04
5.432	0.02475		-0.055
5.434	0.02475		-0.055
5.436	0.02475		-0.055
5.438	0.027		-0.06
5.44	0.027		-0.06
5.442	0.02025		-0.045
5.444	0.01125		-0.025
5.446	0.009		-0.02
5.448	0.0045		-0.01
5.45	0.01125		-0.025
5.452	0.02475		-0.055
5.454	0.027		-0.06
5.456	0.02925		-0.065
5.458	0.02925		-0.065
5.46	0.02475		-0.055
5.462	0.02025		-0.045
5.464	0.01575		-0.035
5.466	0.01125		-0.025
5.468	0.01125		-0.025
5.47	0.01575		-0.035
5.472	0.0225		-0.05
5.474	0.02025		-0.045
5.476	0.0225		-0.05
5.478	0.02475		-0.055
5.48	0.0225		-0.05
5.482	0.018		-0.04
5.484	0.01125		-0.025
5.486	0.009		-0.02
5.488	0.00675		-0.015
5.49	0.009		-0.02
5.492	0.01575		-0.035
5.494	0.01575		-0.035
5.496	0.02025		-0.045
5.498	0.02475		-0.055
5.5	0.02025		-0.045
5.502	0.01575		-0.035
5.504	0.01575		-0.035
5.506	0.0135		-0.03
5.508	0.01125		-0.025
5.51	0.0135		-0.03
5.512	0.02025		-0.045
5.514	0.018		-0.04
5.516	0.0225		-0.05
5.518	0.02475		-0.055
5.52	0.027		-0.06
5.522	0.018		-0.04
5.524	0.0135		-0.03
5.526	0.0135		-0.03
5.528	0.0135		-0.03
5.53	0.0225		-0.05
5.532	0.02475		-0.055
5.534	0.027		-0.06
5.536	0.027		-0.06
5.538	0.0315		-0.07
5.54	0.027		-0.06
5.542	0.0225		-0.05
5.544	0.02025		-0.045
5.546	0.018		-0.04
5.548	0.0135		-0.03
5.55	0.018		-0.04
5.552	0.027		-0.06
5.554	0.027		-0.06
5.556	0.02925		-0.065
5.558	0.0315		-0.07
5.56	0.02925		-0.065
5.562	0.02475		-0.055
5.564	0.02025		-0.045
5.566	0.02025		-0.045
5.568	0.02025		-0.045
5.57	0.02475		-0.055
5.572	0.0225		-0.05
5.574	0.02475		-0.055
5.576	0.0315		-0.07
5.578	0.0315		-0.07
5.58	0.02925		-0.065
5.582	0.027		-0.06
5.584	0.02025		-0.045
5.586	0.018		-0.04
5.588	0.0225		-0.05
5.59	0.02475		-0.055
5.592	0.0225		-0.05
5.594	0.027		-0.06
5.596	0.0315		-0.07
5.598	0.0315		-0.07
5.6	0.027		-0.06
5.602	0.02475		-0.055
5.604	0.02475		-0.055
5.606	0.02025		-0.045
5.608	0.02475		-0.055
5.61	0.02925		-0.065
5.612	0.0315		-0.07
5.614	0.02925		-0.065
5.616	0.03375		-0.075
5.618	0.03825		-0.085
5.62	0.0315		-0.07
5.622	0.027		-0.06
5.624	0.0225		-0.05
5.626	0.0225		-0.05
5.628	0.02025		-0.045
5.63	0.02475		-0.055
5.632	0.02925		-0.065
5.634	0.02475		-0.055
5.636	0.02925		-0.065
5.638	0.0315		-0.07
5.64	0.02475		-0.055
5.642	0.02475		-0.055
5.644	0.027		-0.06
5.646	0.018		-0.04
5.648	0.0135		-0.03
5.65	0.0225		-0.05
5.652	0.02925		-0.065
5.654	0.03825		-0.085
5.656	0.02925		-0.065
5.658	0.0315		-0.07
5.66	0.027		-0.06
5.662	0.018		-0.04
5.664	0.02025		-0.045
5.666	0.02025		-0.045
5.668	0.018		-0.04
5.67	0.02475		-0.055
5.672	0.02925		-0.065
5.674	0.036		-0.08
5.676	0.0405		-0.09
5.678	0.036		-0.08
5.68	0.02925		-0.065
5.682	0.0225		-0.05
5.684	0.0225		-0.05
5.686	0.0225		-0.05
5.688	0.02475		-0.055
5.69	0.0315		-0.07
5.692	0.027		-0.06
5.694	0.02925		-0.065
5.696	0.02925		-0.065
5.698	0.036		-0.08
5.7	0.02925		-0.065
5.702	0.02475		-0.055
5.704	0.02025		-0.045
5.706	0.02025		-0.045
5.708	0.02025		-0.045
5.71	0.02475		-0.055
5.712	0.02925		-0.065
5.714	0.02925		-0.065
5.716	0.03375		-0.075
5.718	0.03375		-0.075
5.72	0.02925		-0.065
5.722	0.018		-0.04
5.724	0.018		-0.04
5.726	0.01575		-0.035
5.728	0.018		-0.04
5.73	0.02025		-0.045
5.732	0.027		-0.06
5.734	0.02475		-0.055
5.736	0.03375		-0.075
5.738	0.0315		-0.07
5.74	0.02475		-0.055
5.742	0.01575		-0.035
5.744	0.02025		-0.045
5.746	0.02025		-0.045
5.748	0.02475		-0.055
5.75	0.02925		-0.065
5.752	0.0315		-0.07
5.754	0.03375		-0.075
5.756	0.0405		-0.09
5.758	0.0315		-0.07
5.76	0.02475		-0.055
5.762	0.0225		-0.05
5.764	0.018		-0.04
5.766	0.018		-0.04
5.768	0.018		-0.04
5.77	0.02925		-0.065
5.772	0.027		-0.06
5.774	0.03825		-0.085
5.776	0.03375		-0.075
5.778	0.03375		-0.075
5.78	0.0225		-0.05
5.782	0.0135		-0.03
5.784	0.0045		-0.01
5.786	0		0
5.788	0.00675		-0.015
5.79	0.01125		-0.025
5.792	0.018		-0.04
5.794	0.0225		-0.05
5.796	0.02025		-0.045
5.798	0.01575		-0.035
5.8	0.009		-0.02
5.802	0.0045		-0.01
5.804	0		0
5.806	-0.009		0.02
5.808	0.0045		-0.01
5.81	0.009		-0.02
5.812	0.0045		-0.01
5.814	0.0045		-0.01
5.816	0.00675		-0.015
5.818	0		0
5.82	-0.01125		0.025
5.822	-0.0135		0.03
5.824	-0.018		0.04
5.826	-0.018		0.04
5.828	-0.0225		0.05
5.83	-0.02475		0.055
5.832	-0.0315		0.07
5.834	-0.0315		0.07
5.836	-0.03375		0.075
5.838	-0.03825		0.085
5.84	-0.04725		0.105
5.842	-0.054		0.12
5.844	-0.0585		0.13
5.846	-0.06075		0.135
5.848	-0.05175		0.115
5.85	-0.0495		0.11
5.852	-0.045		0.1
5.854	-0.03825		0.085
5.856	-0.036		0.08
5.858	-0.045		0.1
5.86	-0.045		0.1
5.862	-0.0495		0.11
5.864	-0.04725		0.105
5.866	-0.05175		0.115
5.868	-0.04725		0.105
5.87	-0.04725		0.105
5.872	-0.0405		0.09
5.874	-0.04275		0.095
5.876	-0.036		0.08
5.878	-0.03825		0.085
5.88	-0.04725		0.105
5.882	-0.04725		0.105
5.884	-0.054		0.12
5.886	-0.054		0.12
5.888	-0.0495		0.11
5.89	-0.0405		0.09
5.892	-0.0405		0.09
5.894	-0.036		0.08
5.896	-0.02925		0.065
5.898	-0.03375		0.075
5.9	-0.0405		0.09
5.902	-0.04275		0.095
5.904	-0.04275		0.095
5.906	-0.054		0.12
5.908	-0.045		0.1
5.91	-0.0405		0.09
5.912	-0.045		0.1
5.914	-0.03825		0.085
5.916	-0.0315		0.07
5.918	-0.0315		0.07
5.92	-0.03825		0.085
5.922	-0.045		0.1
5.924	-0.045		0.1
5.926	-0.0405		0.09
5.928	-0.045		0.1
5.93	-0.03825		0.085
5.932	-0.03825		0.085
5.934	-0.0315		0.07
5.936	-0.0315		0.07
5.938	-0.03375		0.075
5.94	-0.03375		0.075
5.942	-0.0315		0.07
5.944	-0.03825		0.085
5.946	-0.0315		0.07
5.948	-0.0315		0.07
5.95	-0.02475		0.055
5.952	-0.02025		0.045
5.954	-0.0135		0.03
5.956	-0.0135		0.03
5.958	-0.0225		0.05
5.96	-0.036		0.08
5.962	-0.063		0.14
5.964	-0.09675		0.215
5.966	-0.117		0.26
5.968	-0.13725		0.305
5.97	-0.16425		0.365
5.972	-0.18675		0.415
5.974	-0.22275		0.495
5.976	-0.26775		0.595
5.978	-0.3285		0.73
5.98	-0.3825		0.85
5.982	-0.38925		0.865
5.984	-0.387		0.86
5.986	-0.3645		0.81
5.988	-0.3285		0.73
5.99	-0.28575		0.635
5.992	-0.24525		0.545
5.994	-0.19125		0.425
5.996	-0.14175		0.315
5.998	-0.09225		0.205
6	-0.0405		0.09
6.002	-0.0045		0.01
6.004	-0.0045		0.01
6.006	-0.018		0.04
6.008	-0.0135		0.03
6.01	-0.018		0.04
6.012	-0.0225		0.05
6.014	-0.0315		0.07
6.016	-0.0405		0.09
6.018	-0.05175		0.115
6.02	-0.054		0.12
6.022	-0.0585		0.13
6.024	-0.0585		0.13
6.026	-0.054		0.12
6.028	-0.0495		0.11
6.03	-0.04725		0.105
6.032	-0.04275		0.095
6.034	-0.03825		0.085
6.036	-0.0405		0.09
6.038	-0.045		0.1
6.04	-0.04725		0.105
6.042	-0.0495		0.11
6.044	-0.05625		0.125
6.046	-0.05625		0.125
6.048	-0.0495		0.11
6.05	-0.04725		0.105
6.052	-0.04725		0.105
6.054	-0.03825		0.085
6.056	-0.0405		0.09
6.058	-0.04725		0.105
6.06	-0.04725		0.105
6.062	-0.0495		0.11
6.064	-0.05175		0.115
6.066	-0.054		0.12
6.068	-0.04725		0.105
6.07	-0.04275		0.095
6.072	-0.04275		0.095
6.074	-0.03825		0.085
6.076	-0.04275		0.095
6.078	-0.0495		0.11
6.08	-0.054		0.12
6.082	-0.05625		0.125
6.084	-0.06075		0.135
6.086	-0.06525		0.145
6.088	-0.0585		0.13
6.09	-0.0495		0.11
6.092	-0.04725		0.105
6.094	-0.0495		0.11
6.096	-0.05175		0.115
6.098	-0.0585		0.13
6.1	-0.05625		0.125
6.102	-0.06525		0.145
6.104	-0.072		0.16
6.106	-0.0675		0.15
6.108	-0.06075		0.135
6.11	-0.054		0.12
6.112	-0.054		0.12
6.114	-0.054		0.12
6.116	-0.054		0.12
6.118	-0.06075		0.135
6.12	-0.06525		0.145
6.122	-0.07425		0.165
6.124	-0.07875		0.175
6.126	-0.07425		0.165
6.128	-0.072		0.16
6.13	-0.07425		0.165
6.132	-0.07425		0.165
6.134	-0.0675		0.15
6.136	-0.06525		0.145
6.138	-0.06975		0.155
6.14	-0.06975		0.155
6.142	-0.06975		0.155
6.144	-0.072		0.16
6.146	-0.06525		0.145
6.148	-0.07425		0.165
6.15	-0.07875		0.175
6.152	-0.07425		0.165
6.154	-0.06975		0.155
6.156	-0.07875		0.175
6.158	-0.0855		0.19
6.16	-0.09		0.2
6.162	-0.10125		0.225
6.164	-0.099		0.22
6.166	-0.1035		0.23
6.168	-0.1035		0.23
6.17	-0.108		0.24
6.172	-0.1035		0.23
6.174	-0.10125		0.225
6.176	-0.11025		0.245
6.178	-0.11475		0.255
6.18	-0.117		0.26
6.182	-0.1305		0.29
6.184	-0.12825		0.285
6.186	-0.1215		0.27
6.188	-0.11925		0.265
6.19	-0.13275		0.295
6.192	-0.14175		0.315
6.194	-0.135		0.3
6.196	-0.135		0.3
6.198	-0.135		0.3
6.2	-0.1395		0.31
6.202	-0.14625		0.325
6.204	-0.144		0.32
6.206	-0.14625		0.325
6.208	-0.14175		0.315
6.21	-0.14175		0.315
6.212	-0.13725		0.305
6.214	-0.135		0.3
6.216	-0.13725		0.305
6.218	-0.14175		0.315
6.22	-0.1395		0.31
6.222	-0.1395		0.31
6.224	-0.13725		0.305
6.226	-0.13275		0.295
6.228	-0.12825		0.285
6.23	-0.1215		0.27
6.232	-0.108		0.24
6.234	-0.10125		0.225
6.236	-0.099		0.22
6.238	-0.099		0.22
6.24	-0.099		0.22
6.242	-0.0945		0.21
6.244	-0.08775		0.195
6.246	-0.07425		0.165
6.248	-0.0675		0.15
6.25	-0.063		0.14
6.252	-0.06075		0.135
6.254	-0.045		0.1
6.256	-0.045		0.1
6.258	-0.04275		0.095
6.26	-0.054		0.12
6.262	-0.04725		0.105
6.264	-0.045		0.1
6.266	-0.036		0.08
6.268	-0.0225		0.05
6.27	-0.01575		0.035
6.272	-0.01125		0.025
6.274	-0.00675		0.015
6.276	-0.00225		0.005
6.278	-0.009		0.02
6.28	-0.009		0.02
6.282	-0.009		0.02
6.284	-0.0135		0.03
6.286	-0.00675		0.015
6.288	0.0045		-0.01
6.29	0.01575		-0.035
6.292	0.0135		-0.03
6.294	0.009		-0.02
6.296	0.00675		-0.015
6.298	0.0045		-0.01
6.3	0		0
6.302	-0.00225		0.005
6.304	-0.00225		0.005
6.306	0.009		-0.02
6.308	0.0135		-0.03
6.31	0.02025		-0.045
6.312	0.018		-0.04
6.314	0.01575		-0.035
6.316	0.0135		-0.03
6.318	0.0135		-0.03
6.32	0.00675		-0.015
6.322	0.00675		-0.015
6.324	0.0045		-0.01
6.326	0.01575		-0.035
6.328	0.02025		-0.045
6.33	0.02025		-0.045
6.332	0.02475		-0.055
6.334	0.02475		-0.055
6.336	0.0135		-0.03
6.338	0.01125		-0.025
6.34	0.01125		-0.025
6.342	0.0135		-0.03
6.344	0.018		-0.04
6.346	0.02475		-0.055
6.348	0.02925		-0.065
6.35	0.0315		-0.07
6.352	0.03375		-0.075
6.354	0.0315		-0.07
6.356	0.02475		-0.055
6.358	0.01575		-0.035
6.36	0.0135		-0.03
6.362	0.01125		-0.025
6.364	0.018		-0.04
6.366	0.02475		-0.055
6.368	0.0315		-0.07
6.37	0.0405		-0.09
6.372	0.03825		-0.085
6.374	0.02925		-0.065
6.376	0.027		-0.06
6.378	0.02025		-0.045
6.38	0.02025		-0.045
6.382	0.0135		-0.03
6.384	0.018		-0.04
6.386	0.02475		-0.055
6.388	0.027		-0.06
6.39	0.027		-0.06
6.392	0.0315		-0.07
6.394	0.02475		-0.055
6.396	0.0225		-0.05
6.398	0.01575		-0.035
6.4	0.0135		-0.03
6.402	0.01125		-0.025
6.404	0.0135		-0.03
6.406	0.02025		-0.045
6.408	0.0225		-0.05
6.41	0.027		-0.06
6.412	0.02925		-0.065
6.414	0.02475		-0.055
6.416	0.02025		-0.045
6.418	0.01575		-0.035
6.42	0.01575		-0.035
6.422	0.0135		-0.03
6.424	0.0225		-0.05
6.426	0.0225		-0.05
6.428	0.02025		-0.045
6.43	0.0225		-0.05
6.432	0.02475		-0.055
6.434	0.018		-0.04
6.436	0.0135		-0.03
6.438	0.02025		-0.045
6.44	0.018		-0.04
6.442	0.02475		-0.055
6.444	0.03375		-0.075
6.446	0.04275		-0.095
6.448	0.045		-0.1
6.45	0.04275		-0.095
6.452	0.0405		-0.09
6.454	0.036		-0.08
6.456	0.036		-0.08
6.458	0.0225		-0.05
6.46	0.02025		-0.045
6.462	0.0225		-0.05
6.464	0.0225		-0.05
6.466	0.0315		-0.07
6.468	0.036		-0.08
6.47	0.03825		-0.085
6.472	0.04275		-0.095
6.474	0.03375		-0.075
6.476	0.02925		-0.065
6.478	0.0225		-0.05
6.48	0.02025		-0.045
6.482	0.0225		-0.05
6.484	0.02475		-0.055
6.486	0.03375		-0.075
6.488	0.036		-0.08
6.49	0.0405		-0.09
6.492	0.0405		-0.09
6.494	0.036		-0.08
6.496	0.036		-0.08
6.498	0.03375		-0.075
6.5	0.03375		-0.075
6.502	0.027		-0.06
6.504	0.03375		-0.075
6.506	0.0405		-0.09
6.508	0.0405		-0.09
6.51	0.03825		-0.085
6.512	0.04275		-0.095
6.514	0.04275		-0.095
6.516	0.036		-0.08
6.518	0.03825		-0.085
6.52	0.0405		-0.09
6.522	0.036		-0.08
6.524	0.03825		-0.085
6.526	0.045		-0.1
6.528	0.0585		-0.13
6.53	0.05175		-0.115
6.532	0.05175		-0.115
6.534	0.04275		-0.095
6.536	0.0405		-0.09
6.538	0.0405		-0.09
6.54	0.036		-0.08
6.542	0.036		-0.08
6.544	0.03825		-0.085
6.546	0.036		-0.08
6.548	0.04725		-0.105
6.55	0.05175		-0.115
6.552	0.05175		-0.115
6.554	0.0495		-0.11
6.556	0.04275		-0.095
6.558	0.0405		-0.09
6.56	0.036		-0.08
6.562	0.036		-0.08
6.564	0.03825		-0.085
6.566	0.04275		-0.095
6.568	0.045		-0.1
6.57	0.05175		-0.115
6.572	0.054		-0.12
6.574	0.0495		-0.11
6.576	0.05175		-0.115
6.578	0.04275		-0.095
6.58	0.036		-0.08
6.582	0.036		-0.08
6.584	0.03825		-0.085
6.586	0.045		-0.1
6.588	0.05175		-0.115
6.59	0.04725		-0.105
6.592	0.05175		-0.115
6.594	0.0495		-0.11
6.596	0.05175		-0.115
6.598	0.045		-0.1
6.6	0.045		-0.1
6.602	0.04275		-0.095
6.604	0.04275		-0.095
6.606	0.0495		-0.11
6.608	0.0495		-0.11
6.61	0.054		-0.12
6.612	0.04725		-0.105
6.614	0.03825		-0.085
6.616	0.0405		-0.09
6.618	0.036		-0.08
6.62	0.04275		-0.095
6.622	0.04275		-0.095
6.624	0.045		-0.1
6.626	0.05625		-0.125
6.628	0.054		-0.12
6.63	0.05625		-0.125
6.632	0.045		-0.1
6.634	0.0405		-0.09
6.636	0.04725		-0.105
6.638	0.04725		-0.105
6.64	0.03825		-0.085
6.642	0.036		-0.08
6.644	0.0405		-0.09
6.646	0.0495		-0.11
6.648	0.045		-0.1
6.65	0.04725		-0.105
6.652	0.054		-0.12
6.654	0.045		-0.1
6.656	0.04275		-0.095
6.658	0.03825		-0.085
6.66	0.03825		-0.085
6.662	0.03825		-0.085
6.664	0.04275		-0.095
6.666	0.0495		-0.11
6.668	0.0495		-0.11
6.67	0.05175		-0.115
6.672	0.0495		-0.11
6.674	0.03375		-0.075
6.676	0.0315		-0.07
6.678	0.02925		-0.065
6.68	0.02475		-0.055
6.682	0.02025		-0.045
6.684	0.0315		-0.07
6.686	0.036		-0.08
6.688	0.036		-0.08
6.69	0.036		-0.08
6.692	0.03825		-0.085
6.694	0.036		-0.08
6.696	0.0315		-0.07
6.698	0.0315		-0.07
6.7	0.02475		-0.055
6.702	0.02025		-0.045
6.704	0.02475		-0.055
6.706	0.02925		-0.065
6.708	0.02925		-0.065
6.71	0.02925		-0.065
6.712	0.02025		-0.045
6.714	0.0225		-0.05
6.716	0.01125		-0.025
6.718	0.018		-0.04
6.72	0.0045		-0.01
6.722	0.01575		-0.035
6.724	0.018		-0.04
6.726	0.0225		-0.05
6.728	0.02475		-0.055
6.73	0.02925		-0.065
6.732	0.02475		-0.055
6.734	0.02025		-0.045
6.736	0.02025		-0.045
6.738	0.0225		-0.05
6.74	0.01575		-0.035
6.742	0.03375		-0.075
6.744	0.04275		-0.095
6.746	0.04275		-0.095
6.748	0.045		-0.1
6.75	0.05175		-0.115
6.752	0.05625		-0.125
6.754	0.0495		-0.11
6.756	0.036		-0.08
6.758	0.04725		-0.105
6.76	0.0495		-0.11
6.762	0.05175		-0.115
6.764	0.05175		-0.115
6.766	0.0495		-0.11
6.768	0.0495		-0.11
6.77	0.0585		-0.13
6.772	0.054		-0.12
6.774	0.045		-0.1
6.776	0.054		-0.12
6.778	0.04275		-0.095
6.78	0.04275		-0.095
6.782	0.0495		-0.11
6.784	0.0495		-0.11
6.786	0.05175		-0.115
6.788	0.05625		-0.125
6.79	0.06075		-0.135
6.792	0.06075		-0.135
6.794	0.05175		-0.115
6.796	0.0495		-0.11
6.798	0.05175		-0.115
6.8	0.04725		-0.105
6.802	0.05625		-0.125
6.804	0.06075		-0.135
6.806	0.0585		-0.13
6.808	0.0585		-0.13
6.81	0.06075		-0.135
6.812	0.0585		-0.13
6.814	0.0495		-0.11
6.816	0.04725		-0.105
6.818	0.045		-0.1
6.82	0.0495		-0.11
6.822	0.05175		-0.115
6.824	0.06075		-0.135
6.826	0.06075		-0.135
6.828	0.06075		-0.135
6.83	0.06075		-0.135
6.832	0.06975		-0.155
6.834	0.06525		-0.145
6.836	0.0585		-0.13
6.838	0.0585		-0.13
6.84	0.063		-0.14
6.842	0.072		-0.16
6.844	0.08325		-0.185
6.846	0.07875		-0.175
6.848	0.07425		-0.165
6.85	0.05625		-0.125
6.852	0.027		-0.06
6.854	0.00225		-0.005
6.856	-0.02025		0.045
6.858	-0.04725		0.105
6.86	-0.081		0.18
6.862	-0.11025		0.245
6.864	-0.1485		0.33
6.866	-0.19575		0.435
6.868	-0.23175		0.515
6.87	-0.24975		0.555
6.872	-0.24975		0.555
6.874	-0.23625		0.525
6.876	-0.216		0.48
6.878	-0.18675		0.415
6.88	-0.162		0.36
6.882	-0.11475		0.255
6.884	-0.06075		0.135
6.886	0.0045		-0.01
6.888	0.05175		-0.115
6.89	0.08775		-0.195
6.892	0.09675		-0.215
6.894	0.09675		-0.215
6.896	0.0855		-0.19
6.898	0.07425		-0.165
6.9	0.072		-0.16
6.902	0.0675		-0.15
6.904	0.05625		-0.125
6.906	0.04725		-0.105
6.908	0.0495		-0.11
6.91	0.0405		-0.09
6.912	0.0405		-0.09
6.914	0.036		-0.08
6.916	0.036		-0.08
6.918	0.036		-0.08
6.92	0.03825		-0.085
6.922	0.0405		-0.09
6.924	0.04725		-0.105
6.926	0.05175		-0.115
6.928	0.05175		-0.115
6.93	0.05175		-0.115
6.932	0.04275		-0.095
6.934	0.04275		-0.095
6.936	0.04275		-0.095
6.938	0.03375		-0.075
6.94	0.03825		-0.085
6.942	0.04275		-0.095
6.944	0.04275		-0.095
6.946	0.0405		-0.09
6.948	0.04725		-0.105
6.95	0.0405		-0.09
6.952	0.02925		-0.065
6.954	0.03375		-0.075
6.956	0.03375		-0.075
6.958	0.02925		-0.065
6.96	0.027		-0.06
6.962	0.0315		-0.07
6.964	0.0405		-0.09
6.966	0.04275		-0.095
6.968	0.045		-0.1
6.97	0.0405		-0.09
6.972	0.02925		-0.065
6.974	0.027		-0.06
6.976	0.02475		-0.055
6.978	0.0135		-0.03
6.98	0.02475		-0.055
6.982	0.0315		-0.07
6.984	0.0315		-0.07
6.986	0.03375		-0.075
6.988	0.0315		-0.07
6.99	0.0315		-0.07
6.992	0.027		-0.06
6.994	0.02475		-0.055
6.996	0.0225		-0.05
6.998	0.018		-0.04
7	0.02475		-0.055
7.002	0.0225		-0.05
7.004	0.02025		-0.045
7.006	0.02475		-0.055
7.008	0.027		-0.06
7.01	0.018		-0.04
7.012	0.0135		-0.03
7.014	0.0135		-0.03
7.016	0.009		-0.02
7.018	0.009		-0.02
7.02	0.01575		-0.035
7.022	0.01575		-0.035
7.024	0.01575		-0.035
7.026	0.01575		-0.035
7.028	0.018		-0.04
7.03	0.01575		-0.035
7.032	0.00225		-0.005
7.034	-0.009		0.02
7.036	-0.009		0.02
7.038	-0.009		0.02
7.04	-0.0045		0.01
7.042	-0.00675		0.015
7.044	-0.0045		0.01
7.046	-0.0045		0.01
7.048	-0.00675		0.015
7.05	-0.009		0.02
7.052	-0.01125		0.025
7.054	-0.009		0.02
7.056	-0.01575		0.035
7.058	-0.02475		0.055
7.06	-0.02925		0.065
7.062	-0.02475		0.055
7.064	-0.027		0.06
7.066	-0.027		0.06
7.068	-0.0315		0.07
7.07	-0.045		0.1
7.072	-0.05175		0.115
7.074	-0.05175		0.115
7.076	-0.04725		0.105
7.078	-0.05625		0.125
7.08	-0.05625		0.125
7.082	-0.05175		0.115
7.084	-0.04725		0.105
7.086	-0.05175		0.115
7.088	-0.0495		0.11
7.09	-0.05625		0.125
7.092	-0.05625		0.125
7.094	-0.0585		0.13
7.096	-0.06525		0.145
7.098	-0.0675		0.15
7.1	-0.06075		0.135
7.102	-0.0585		0.13
7.104	-0.0585		0.13
7.106	-0.05175		0.115
7.108	-0.0495		0.11
7.11	-0.0585		0.13
7.112	-0.06075		0.135
7.114	-0.06075		0.135
7.116	-0.0585		0.13
7.118	-0.0585		0.13
7.12	-0.05175		0.115
7.122	-0.03825		0.085
7.124	-0.03375		0.075
7.126	-0.02925		0.065
7.128	-0.027		0.06
7.13	-0.02475		0.055
7.132	-0.0225		0.05
7.134	-0.0135		0.03
7.136	-0.018		0.04
7.138	-0.0135		0.03
7.14	-0.009		0.02
7.142	0.00675		-0.015
7.144	0.01125		-0.025
7.146	0.0135		-0.03
7.148	0.0135		-0.03
7.15	0.0135		-0.03
7.152	0.0135		-0.03
7.154	0.0135		-0.03
7.156	0.009		-0.02
7.158	0.018		-0.04
7.16	0.0225		-0.05
7.162	0.03375		-0.075
7.164	0.03825		-0.085
7.166	0.036		-0.08
7.168	0.036		-0.08
7.17	0.02925		-0.065
7.172	0.0315		-0.07
7.174	0.02925		-0.065
7.176	0.02475		-0.055
7.178	0.03375		-0.075
7.18	0.0405		-0.09
7.182	0.05175		-0.115
7.184	0.045		-0.1
7.186	0.0495		-0.11
7.188	0.05175		-0.115
7.19	0.04725		-0.105
7.192	0.04275		-0.095
7.194	0.0405		-0.09
7.196	0.03375		-0.075
7.198	0.027		-0.06
7.2	0.04275		-0.095
7.202	0.045		-0.1
7.204	0.05625		-0.125
7.206	0.05175		-0.115
7.208	0.05175		-0.115
7.21	0.045		-0.1
7.212	0.045		-0.1
7.214	0.045		-0.1
7.216	0.0405		-0.09
7.218	0.0405		-0.09
7.22	0.045		-0.1
7.222	0.0495		-0.11
7.224	0.04725		-0.105
7.226	0.05175		-0.115
7.228	0.04725		-0.105
7.23	0.0405		-0.09
7.232	0.036		-0.08
7.234	0.03375		-0.075
7.236	0.03375		-0.075
7.238	0.04275		-0.095
7.24	0.045		-0.1
7.242	0.04725		-0.105
7.244	0.054		-0.12
7.246	0.054		-0.12
7.248	0.05175		-0.115
7.25	0.04275		-0.095
7.252	0.04275		-0.095
7.254	0.0405		-0.09
7.256	0.0315		-0.07
7.258	0.04275		-0.095
7.26	0.04275		-0.095
7.262	0.0405		-0.09
7.264	0.04725		-0.105
7.266	0.0495		-0.11
7.268	0.0405		-0.09
7.27	0.0315		-0.07
7.272	0.0315		-0.07
7.274	0.0315		-0.07
7.276	0.0315		-0.07
7.278	0.03825		-0.085
7.28	0.045		-0.1
7.282	0.045		-0.1
7.284	0.045		-0.1
7.286	0.0495		-0.11
7.288	0.0495		-0.11
7.29	0.0405		-0.09
7.292	0.0405		-0.09
7.294	0.0315		-0.07
7.296	0.0315		-0.07
7.298	0.03375		-0.075
7.3	0.04275		-0.095
7.302	0.0495		-0.11
7.304	0.045		-0.1
7.306	0.045		-0.1
7.308	0.04275		-0.095
7.31	0.04275		-0.095
7.312	0.036		-0.08
7.314	0.03375		-0.075
7.316	0.0225		-0.05
7.318	0.02925		-0.065
7.32	0.03825		-0.085
7.322	0.0405		-0.09
7.324	0.0495		-0.11
7.326	0.05175		-0.115
7.328	0.045		-0.1
7.33	0.04275		-0.095
7.332	0.03825		-0.085
7.334	0.02925		-0.065
7.336	0.027		-0.06
7.338	0.02925		-0.065
7.34	0.04275		-0.095
7.342	0.054		-0.12
7.344	0.045		-0.1
7.346	0.045		-0.1
7.348	0.04725		-0.105
7.35	0.03825		-0.085
7.352	0.03375		-0.075
7.354	0.03375		-0.075
7.356	0.0315		-0.07
7.358	0.03825		-0.085
7.36	0.045		-0.1
7.362	0.05175		-0.115
7.364	0.054		-0.12
7.366	0.05175		-0.115
7.368	0.045		-0.1
7.37	0.036		-0.08
7.372	0.0405		-0.09
7.374	0.0405		-0.09
7.376	0.0315		-0.07
7.378	0.04275		-0.095
7.38	0.05175		-0.115
7.382	0.05175		-0.115
7.384	0.05175		-0.115
7.386	0.054		-0.12
7.388	0.05175		-0.115
7.39	0.04275		-0.095
7.392	0.045		-0.1
7.394	0.04275		-0.095
7.396	0.03375		-0.075
7.398	0.04275		-0.095
7.4	0.0495		-0.11
7.402	0.05625		-0.125
7.404	0.054		-0.12
7.406	0.045		-0.1
7.408	0.05175		-0.115
7.41	0.0495		-0.11
7.412	0.045		-0.1
7.414	0.036		-0.08
7.416	0.04275		-0.095
7.418	0.04275		-0.095
7.42	0.0495		-0.11
7.422	0.0585		-0.13
7.424	0.054		-0.12
7.426	0.05625		-0.125
7.428	0.054		-0.12
7.43	0.0495		-0.11
7.432	0.04725		-0.105
7.434	0.04275		-0.095
7.436	0.045		-0.1
7.438	0.04725		-0.105
7.44	0.054		-0.12
7.442	0.054		-0.12
7.444	0.05625		-0.125
7.446	0.054		-0.12
7.448	0.04725		-0.105
7.45	0.04275		-0.095
7.452	0.04275		-0.095
7.454	0.0405		-0.09
7.456	0.045		-0.1
7.458	0.04725		-0.105
7.46	0.05175		-0.115
7.462	0.05175		-0.115
7.464	0.063		-0.14
7.466	0.06075		-0.135
7.468	0.054		-0.12
7.47	0.054		-0.12
7.472	0.0495		-0.11
7.474	0.04725		-0.105
7.476	0.04275		-0.095
7.478	0.05175		-0.115
7.48	0.0585		-0.13
7.482	0.0585		-0.13
7.484	0.05175		-0.115
7.486	0.05625		-0.125
7.488	0.04725		-0.105
7.49	0.04725		-0.105
7.492	0.04275		-0.095
7.494	0.04275		-0.095
7.496	0.0495		-0.11
7.498	0.04725		-0.105
7.5	0.04725		-0.105
7.502	0.05175		-0.115
7.504	0.06075		-0.135
7.506	0.06525		-0.145
7.508	0.05175		-0.115
7.51	0.045		-0.1
7.512	0.0495		-0.11
7.514	0.04275		-0.095
7.516	0.04275		-0.095
7.518	0.0495		-0.11
7.52	0.05175		-0.115
7.522	0.054		-0.12
7.524	0.0585		-0.13
7.526	0.063		-0.14
7.528	0.05625		-0.125
7.53	0.05175		-0.115
7.532	0.045		-0.1
7.534	0.045		-0.1
7.536	0.0495		-0.11
7.538	0.04725		-0.105
7.54	0.04725		-0.105
7.542	0.045		-0.1
7.544	0.05625		-0.125
7.546	0.04725		-0.105
7.548	0.036		-0.08
7.55	0.036		-0.08
7.552	0.027		-0.06
7.554	0.02925		-0.065
7.556	0.02925		-0.065
7.558	0.036		-0.08
7.56	0.04275		-0.095
7.562	0.045		-0.1
7.564	0.0495		-0.11
7.566	0.04725		-0.105
7.568	0.03375		-0.075
7.57	0.0225		-0.05
7.572	0.0225		-0.05
7.574	0.02025		-0.045
7.576	0.0225		-0.05
7.578	0.02925		-0.065
7.58	0.0315		-0.07
7.582	0.02475		-0.055
7.584	0.02925		-0.065
7.586	0.02475		-0.055
7.588	0.027		-0.06
7.59	0.018		-0.04
7.592	0.01575		-0.035
7.594	0.0135		-0.03
7.596	0.02025		-0.045
7.598	0.027		-0.06
7.6	0.02925		-0.065
7.602	0.02925		-0.065
7.604	0.03375		-0.075
7.606	0.03375		-0.075
7.608	0.03375		-0.075
7.61	0.03375		-0.075
7.612	0.0225		-0.05
7.614	0.0315		-0.07
7.616	0.04275		-0.095
7.618	0.04275		-0.095
7.62	0.0495		-0.11
7.622	0.05175		-0.115
7.624	0.06075		-0.135
7.626	0.0495		-0.11
7.628	0.04725		-0.105
7.63	0.05175		-0.115
7.632	0.04725		-0.105
7.634	0.045		-0.1
7.636	0.04725		-0.105
7.638	0.05175		-0.115
7.64	0.06075		-0.135
7.642	0.063		-0.14
7.644	0.0585		-0.13
7.646	0.0585		-0.13
7.648	0.054		-0.12
7.65	0.05175		-0.115
7.652	0.045		-0.1
7.654	0.04275		-0.095
7.656	0.04725		-0.105
7.658	0.054		-0.12
7.66	0.054		-0.12
7.662	0.054		-0.12
7.664	0.0675		-0.15
7.666	0.0585		-0.13
7.668	0.054		-0.12
7.67	0.05175		-0.115
7.672	0.06075		-0.135
7.674	0.054		-0.12
7.676	0.0495		-0.11
7.678	0.0495		-0.11
7.68	0.05175		-0.115
7.682	0.0585		-0.13
7.684	0.06075		-0.135
7.686	0.06075		-0.135
7.688	0.05625		-0.125
7.69	0.04725		-0.105
7.692	0.0495		-0.11
7.694	0.0495		-0.11
7.696	0.06075		-0.135
7.698	0.06075		-0.135
7.7	0.0675		-0.15
7.702	0.072		-0.16
7.704	0.072		-0.16
7.706	0.06525		-0.145
7.708	0.0675		-0.15
7.71	0.0765		-0.17
7.712	0.0675		-0.15
7.714	0.06075		-0.135
7.716	0.05175		-0.115
7.718	0.036		-0.08
7.72	0.018		-0.04
7.722	0		0
7.724	-0.0135		0.03
7.726	-0.04275		0.095
7.728	-0.06975		0.155
7.73	-0.108		0.24
7.732	-0.15525		0.345
7.734	-0.18675		0.415
7.736	-0.225		0.5
7.738	-0.21825		0.485
7.74	-0.20925		0.465
7.742	-0.17775		0.395
7.744	-0.1575		0.35
7.746	-0.12825		0.285
7.748	-0.108		0.24
7.75	-0.07875		0.175
7.752	-0.03825		0.085
7.754	0.01125		-0.025
7.756	0.06075		-0.135
7.758	0.099		-0.22
7.76	0.10125		-0.225
7.762	0.09225		-0.205
7.764	0.081		-0.18
7.766	0.0675		-0.15
7.768	0.06075		-0.135
7.77	0.0495		-0.11
7.772	0.04275		-0.095
7.774	0.03825		-0.085
7.776	0.03375		-0.075
7.778	0.04275		-0.095
7.78	0.04725		-0.105
7.782	0.05625		-0.125
7.784	0.054		-0.12
7.786	0.054		-0.12
7.788	0.0495		-0.11
7.79	0.04275		-0.095
7.792	0.036		-0.08
7.794	0.03375		-0.075
7.796	0.03825		-0.085
7.798	0.045		-0.1
7.8	0.054		-0.12
7.802	0.05625		-0.125
7.804	0.0495		-0.11
7.806	0.054		-0.12
7.808	0.05175		-0.115
7.81	0.045		-0.1
7.812	0.0405		-0.09
7.814	0.03825		-0.085
7.816	0.045		-0.1
7.818	0.045		-0.1
7.82	0.0405		-0.09
7.822	0.04275		-0.095
7.824	0.03825		-0.085
7.826	0.0405		-0.09
7.828	0.0405		-0.09
7.83	0.03825		-0.085
7.832	0.02925		-0.065
7.834	0.03375		-0.075
7.836	0.036		-0.08
7.838	0.03375		-0.075
7.84	0.036		-0.08
7.842	0.045		-0.1
7.844	0.0405		-0.09
7.846	0.0315		-0.07
7.848	0.02475		-0.055
7.85	0.02925		-0.065
7.852	0.02925		-0.065
7.854	0.027		-0.06
7.856	0.01575		-0.035
7.858	0.01125		-0.025
7.86	0.00675		-0.015
7.862	0		0
7.864	-0.00675		0.015
7.866	-0.018		0.04
7.868	-0.018		0.04
7.87	-0.03375		0.075
7.872	-0.03825		0.085
7.874	-0.03825		0.085
7.876	-0.0405		0.09
7.878	-0.04275		0.095
7.88	-0.0315		0.07
7.882	-0.036		0.08
7.884	-0.045		0.1
7.886	-0.045		0.1
7.888	-0.054		0.12
7.89	-0.06075		0.135
7.892	-0.06525		0.145
7.894	-0.05625		0.125
7.896	-0.06075		0.135
7.898	-0.0585		0.13
7.9	-0.05175		0.115
7.902	-0.06075		0.135
7.904	-0.06525		0.145
7.906	-0.081		0.18
7.908	-0.0855		0.19
7.91	-0.07875		0.175
7.912	-0.08325		0.185
7.914	-0.0855		0.19
7.916	-0.081		0.18
7.918	-0.08325		0.185
7.92	-0.081		0.18
7.922	-0.08325		0.185
7.924	-0.08775		0.195
7.926	-0.09675		0.215
7.928	-0.0945		0.21
7.93	-0.099		0.22
7.932	-0.1125		0.25
7.934	-0.11475		0.255
7.936	-0.1125		0.25
7.938	-0.117		0.26
7.94	-0.11025		0.245
7.942	-0.117		0.26
7.944	-0.117		0.26
7.946	-0.12825		0.285
7.948	-0.12375		0.275
7.95	-0.13725		0.305
7.952	-0.13725		0.305
7.954	-0.13275		0.295
7.956	-0.1305		0.29
7.958	-0.1215		0.27
7.96	-0.12375		0.275
7.962	-0.126		0.28
7.964	-0.12825		0.285
7.966	-0.13275		0.295
7.968	-0.144		0.32
7.97	-0.1305		0.29
7.972	-0.144		0.32
7.974	-0.13725		0.305
7.976	-0.135		0.3
7.978	-0.126		0.28
7.98	-0.117		0.26
7.982	-0.1215		0.27
7.984	-0.117		0.26
7.986	-0.1215		0.27
7.988	-0.1215		0.27
7.99	-0.11925		0.265
7.992	-0.11925		0.265
7.994	-0.108		0.24
7.996	-0.09675		0.215
7.998	-0.10125		0.225
8	-0.0945		0.21
8.002	-0.081		0.18
8.004	-0.07875		0.175
8.006	-0.0765		0.17
8.008	-0.0765		0.17
8.01	-0.08325		0.185
8.012	-0.072		0.16
8.014	-0.06525		0.145
8.016	-0.05625		0.125
8.018	-0.05175		0.115
8.02	-0.045		0.1
8.022	-0.0495		0.11
8.024	-0.04725		0.105
8.026	-0.045		0.1
8.028	-0.0585		0.13
8.03	-0.0495		0.11
8.032	-0.04725		0.105
8.034	-0.03825		0.085
8.036	-0.0315		0.07
8.038	-0.02925		0.065
8.04	-0.02925		0.065
8.042	-0.027		0.06
8.044	-0.03375		0.075
8.046	-0.03375		0.075
8.048	-0.0315		0.07
8.05	-0.02925		0.065
8.052	-0.02925		0.065
8.054	-0.027		0.06
8.056	-0.02025		0.045
8.058	-0.01575		0.035
8.06	-0.01575		0.035
8.062	-0.009		0.02
8.064	-0.01575		0.035
8.066	-0.0225		0.05
8.068	-0.0225		0.05
8.07	-0.0315		0.07
8.072	-0.0315		0.07
8.074	-0.0225		0.05
8.076	-0.0225		0.05
8.078	-0.018		0.04
8.08	-0.0135		0.03
8.082	-0.01575		0.035
8.084	-0.0225		0.05
8.086	-0.0225		0.05
8.088	-0.0315		0.07
8.09	-0.036		0.08
8.092	-0.02475		0.055
8.094	-0.02025		0.045
8.096	-0.018		0.04
8.098	-0.0135		0.03
8.1	-0.018		0.04
8.102	-0.009		0.02
8.104	-0.018		0.04
8.106	-0.0225		0.05
8.108	-0.0225		0.05
8.11	-0.027		0.06
8.112	-0.02025		0.045
8.114	-0.01575		0.035
8.116	-0.01575		0.035
8.118	-0.01125		0.025
8.12	-0.01125		0.025
8.122	-0.0135		0.03
8.124	-0.018		0.04
8.126	-0.0225		0.05
8.128	-0.02475		0.055
8.13	-0.02925		0.065
8.132	-0.0225		0.05
8.134	-0.02025		0.045
8.136	-0.0135		0.03
8.138	-0.009		0.02
8.14	-0.00675		0.015
8.142	-0.0045		0.01
8.144	-0.00675		0.015
8.146	-0.0135		0.03
8.148	-0.018		0.04
8.15	-0.0225		0.05
8.152	-0.018		0.04
8.154	-0.01125		0.025
8.156	-0.009		0.02
8.158	-0.00225		0.005
8.16	-0.0045		0.01
8.162	-0.0045		0.01
8.164	-0.0135		0.03
8.166	-0.01575		0.035
8.168	-0.02025		0.045
8.17	-0.01575		0.035
8.172	-0.01575		0.035
8.174	-0.00675		0.015
8.176	-0.0045		0.01
8.178	0		0
8.18	0.0045		-0.01
8.182	0.00225		-0.005
8.184	-0.00675		0.015
8.186	-0.00675		0.015
8.188	-0.0045		0.01
8.19	-0.01125		0.025
8.192	-0.00675		0.015
8.194	-0.00225		0.005
8.196	0.00675		-0.015
8.198	-0.0045		0.01
8.2	-0.00225		0.005
8.202	0.00225		-0.005
8.204	-0.00225		0.005
8.206	-0.0045		0.01
8.208	-0.009		0.02
8.21	0		0
8.212	-0.0045		0.01
8.214	0.00675		-0.015
8.216	0.018		-0.04
8.218	0.02025		-0.045
8.22	0.0225		-0.05
8.222	0.0135		-0.03
8.224	0.00675		-0.015
8.226	0.00225		-0.005
8.228	-0.0045		0.01
8.23	0.0135		-0.03
8.232	0		0
8.234	0.0045		-0.01
8.236	0.0045		-0.01
8.238	0.0135		-0.03
8.24	0.01125		-0.025
8.242	0.018		-0.04
8.244	0.01575		-0.035
8.246	0.0045		-0.01
8.248	0.00225		-0.005
8.25	0.009		-0.02
8.252	0.0135		-0.03
8.254	0.018		-0.04
8.256	0.0135		-0.03
8.258	0.02025		-0.045
8.26	0.027		-0.06
8.262	0.009		-0.02
8.264	0		0
8.266	0.01125		-0.025
8.268	0.009		-0.02
8.27	-0.00675		0.015
8.272	0.01575		-0.035
8.274	0.018		-0.04
8.276	0.027		-0.06
8.278	0.0225		-0.05
8.28	0.01575		-0.035
8.282	0.0225		-0.05
8.284	0.01575		-0.035
8.286	0.0225		-0.05
8.288	0.018		-0.04
8.29	0.0135		-0.03
8.292	0.0135		-0.03
8.294	0.0225		-0.05
8.296	0.02025		-0.045
8.298	0.027		-0.06
8.3	0.036		-0.08
8.302	0.02025		-0.045
8.304	0.018		-0.04
8.306	0.02025		-0.045
8.308	0.018		-0.04
8.31	0.0135		-0.03
8.312	0.02925		-0.065
8.314	0.02925		-0.065
8.316	0.02475		-0.055
8.318	0.0315		-0.07
8.32	0.03375		-0.075
8.322	0.0315		-0.07
8.324	0.02475		-0.055
8.326	0.02475		-0.055
8.328	0.027		-0.06
8.33	0.0225		-0.05
8.332	0.02925		-0.065
8.334	0.03375		-0.075
8.336	0.03375		-0.075
8.338	0.03825		-0.085
8.34	0.04275		-0.095
8.342	0.036		-0.08
8.344	0.0315		-0.07
8.346	0.0315		-0.07
8.348	0.02925		-0.065
8.35	0.03375		-0.075
8.352	0.03375		-0.075
8.354	0.036		-0.08
8.356	0.03375		-0.075
8.358	0.045		-0.1
8.36	0.03825		-0.085
8.362	0.036		-0.08
8.364	0.03375		-0.075
8.366	0.02475		-0.055
8.368	0.027		-0.06
8.37	0.036		-0.08
8.372	0.0405		-0.09
8.374	0.04725		-0.105
8.376	0.0495		-0.11
8.378	0.0495		-0.11
8.38	0.045		-0.1
8.382	0.03375		-0.075
8.384	0.02925		-0.065
8.386	0.02475		-0.055
8.388	0.0225		-0.05
8.39	0.02475		-0.055
8.392	0.03375		-0.075
8.394	0.02925		-0.065
8.396	0.027		-0.06
8.398	0.02925		-0.065
8.4	0.02475		-0.055
8.402	0.018		-0.04
8.404	0.02025		-0.045
8.406	0.018		-0.04
8.408	0.02025		-0.045
8.41	0.0225		-0.05
8.412	0.0315		-0.07
8.414	0.036		-0.08
8.416	0.036		-0.08
8.418	0.02925		-0.065
8.42	0.01125		-0.025
8.422	0.0135		-0.03
8.424	0.0135		-0.03
8.426	0.0135		-0.03
8.428	0		0
8.43	0.0045		-0.01
8.432	0.009		-0.02
8.434	0.01575		-0.035
8.436	0.018		-0.04
8.438	0.02025		-0.045
8.44	0.018		-0.04
8.442	0.01125		-0.025
8.444	0.0135		-0.03
8.446	0.0135		-0.03
8.448	0.01125		-0.025
8.45	0.00225		-0.005
8.452	0.01575		-0.035
8.454	0.02025		-0.045
8.456	0.02925		-0.065
8.458	0.045		-0.1
8.46	0.03825		-0.085
8.462	0.036		-0.08
8.464	0.036		-0.08
8.466	0.036		-0.08
8.468	0.036		-0.08
8.47	0.0405		-0.09
8.472	0.045		-0.1
8.474	0.05175		-0.115
8.476	0.054		-0.12
8.478	0.06075		-0.135
8.48	0.0585		-0.13
8.482	0.04725		-0.105
8.484	0.05175		-0.115
8.486	0.045		-0.1
8.488	0.04725		-0.105
8.49	0.04275		-0.095
8.492	0.045		-0.1
8.494	0.054		-0.12
8.496	0.0585		-0.13
8.498	0.06075		-0.135
8.5	0.054		-0.12
8.502	0.05175		-0.115
8.504	0.04725		-0.105
8.506	0.04725		-0.105
8.508	0.04725		-0.105
8.51	0.054		-0.12
8.512	0.063		-0.14
8.514	0.06075		-0.135
8.516	0.0585		-0.13
8.518	0.06525		-0.145
8.52	0.0585		-0.13
8.522	0.0495		-0.11
8.524	0.0495		-0.11
8.526	0.0585		-0.13
8.528	0.05175		-0.115
8.53	0.0495		-0.11
8.532	0.05625		-0.125
8.534	0.063		-0.14
8.536	0.063		-0.14
8.538	0.072		-0.16
8.54	0.0585		-0.13
8.542	0.05625		-0.125
8.544	0.0585		-0.13
8.546	0.0675		-0.15
8.548	0.054		-0.12
8.55	0.06525		-0.145
8.552	0.072		-0.16
8.554	0.07875		-0.175
8.556	0.072		-0.16
8.558	0.08775		-0.195
8.56	0.08325		-0.185
8.562	0.063		-0.14
8.564	0.0405		-0.09
8.566	0.02025		-0.045
8.568	-0.0045		0.01
8.57	-0.0225		0.05
8.572	-0.0315		0.07
8.574	-0.054		0.12
8.576	-0.0855		0.19
8.578	-0.126		0.28
8.58	-0.1755		0.39
8.582	-0.22725		0.505
8.584	-0.234		0.52
8.586	-0.2295		0.51
8.588	-0.2115		0.47
8.59	-0.17325		0.385
8.592	-0.1485		0.33
8.594	-0.1125		0.25
8.596	-0.06975		0.155
8.598	-0.027		0.06
8.6	0.027		-0.06
8.602	0.06075		-0.135
8.604	0.09225		-0.205
8.606	0.099		-0.22
8.608	0.09225		-0.205
8.61	0.0945		-0.21
8.612	0.08775		-0.195
8.614	0.07425		-0.165
8.616	0.06525		-0.145
8.618	0.0585		-0.13
8.62	0.0585		-0.13
8.622	0.0495		-0.11
8.624	0.0405		-0.09
8.626	0.04275		-0.095
8.628	0.04725		-0.105
8.63	0.05175		-0.115
8.632	0.05175		-0.115
8.634	0.05175		-0.115
8.636	0.05175		-0.115
8.638	0.0495		-0.11
8.64	0.0495		-0.11
8.642	0.036		-0.08
8.644	0.054		-0.12
8.646	0.045		-0.1
8.648	0.036		-0.08
8.65	0.0495		-0.11
8.652	0.06525		-0.145
8.654	0.05625		-0.125
8.656	0.0585		-0.13
8.658	0.05175		-0.115
8.66	0.0495		-0.11
8.662	0.036		-0.08
8.664	0.02925		-0.065
8.666	0.0315		-0.07
8.668	0.036		-0.08
8.67	0.04275		-0.095
8.672	0.045		-0.1
8.674	0.04275		-0.095
8.676	0.05175		-0.115
8.678	0.0495		-0.11
8.68	0.03825		-0.085
8.682	0.0405		-0.09
8.684	0.02925		-0.065
8.686	0.018		-0.04
8.688	0.02925		-0.065
8.69	0.02025		-0.045
8.692	0.036		-0.08
8.694	0.02925		-0.065
8.696	0.045		-0.1
8.698	0.04725		-0.105
8.7	0.04275		-0.095
8.702	0.036		-0.08
8.704	0.0315		-0.07
8.706	0.027		-0.06
8.708	0.036		-0.08
8.71	0.036		-0.08
8.712	0.03375		-0.075
8.714	0.02475		-0.055
8.716	0.04275		-0.095
8.718	0.03375		-0.075
8.72	0.02475		-0.055
8.722	0.01575		-0.035
8.724	0.0135		-0.03
8.726	0.0135		-0.03
8.728	0.01575		-0.035
8.73	0.02025		-0.045
8.732	0.018		-0.04
8.734	0.02025		-0.045
8.736	0.02025		-0.045
8.738	0.02025		-0.045
8.74	0.01575		-0.035
8.742	0.00675		-0.015
8.744	0		0
8.746	-0.00225		0.005
8.748	0		0
8.75	0.00675		-0.015
8.752	0.009		-0.02
8.754	0.01125		-0.025
8.756	0.00675		-0.015
8.758	0		0
8.76	0.0045		-0.01
8.762	-0.009		0.02
8.764	-0.0135		0.03
8.766	-0.0225		0.05
8.768	-0.02475		0.055
8.77	-0.02025		0.045
8.772	-0.018		0.04
8.774	-0.0135		0.03
8.776	-0.0135		0.03
8.778	-0.01575		0.035
8.78	-0.02475		0.055
8.782	-0.02925		0.065
8.784	-0.03825		0.085
8.786	-0.0585		0.13
8.788	-0.045		0.1
8.79	-0.03375		0.075
8.792	-0.0405		0.09
8.794	-0.0405		0.09
8.796	-0.04275		0.095
8.798	-0.04275		0.095
8.8	-0.0495		0.11
8.802	-0.054		0.12
8.804	-0.0585		0.13
8.806	-0.0675		0.15
8.808	-0.06075		0.135
8.81	-0.045		0.1
8.812	-0.045		0.1
8.814	-0.05175		0.115
8.816	-0.04275		0.095
8.818	-0.05175		0.115
8.82	-0.05625		0.125
8.822	-0.0495		0.11
8.824	-0.05625		0.125
8.826	-0.05175		0.115
8.828	-0.04725		0.105
8.83	-0.0405		0.09
8.832	-0.03825		0.085
8.834	-0.0315		0.07
8.836	-0.027		0.06
8.838	-0.027		0.06
8.84	-0.0225		0.05
8.842	-0.04275		0.095
8.844	-0.02025		0.045
8.846	-0.018		0.04
8.848	-0.0135		0.03
8.85	0.00225		-0.005
8.852	0.00675		-0.015
8.854	0.0045		-0.01
8.856	0.01575		-0.035
8.858	0.018		-0.04
8.86	0.0135		-0.03
8.862	0.018		-0.04
8.864	0.0225		-0.05
8.866	0.018		-0.04
8.868	0.027		-0.06
8.87	0.045		-0.1
8.872	0.04725		-0.105
8.874	0.04725		-0.105
8.876	0.05175		-0.115
8.878	0.04275		-0.095
8.88	0.0405		-0.09
8.882	0.02925		-0.065
8.884	0.03825		-0.085
8.886	0.0405		-0.09
8.888	0.05175		-0.115
8.89	0.06075		-0.135
8.892	0.06075		-0.135
8.894	0.05175		-0.115
8.896	0.05625		-0.125
8.898	0.05625		-0.125
8.9	0.054		-0.12
8.902	0.0495		-0.11
8.904	0.04275		-0.095
8.906	0.045		-0.1
8.908	0.05175		-0.115
8.91	0.05625		-0.125
8.912	0.063		-0.14
8.914	0.06525		-0.145
8.916	0.063		-0.14
8.918	0.054		-0.12
8.92	0.05175		-0.115
8.922	0.04725		-0.105
8.924	0.04725		-0.105
8.926	0.045		-0.1
8.928	0.05175		-0.115
8.93	0.054		-0.12
8.932	0.06075		-0.135
8.934	0.063		-0.14
8.936	0.063		-0.14
8.938	0.05625		-0.125
8.94	0.04725		-0.105
8.942	0.0495		-0.11
8.944	0.045		-0.1
8.946	0.04725		-0.105
8.948	0.045		-0.1
8.95	0.04725		-0.105
8.952	0.0495		-0.11
8.954	0.05625		-0.125
8.956	0.063		-0.14
8.958	0.05625		-0.125
8.96	0.05175		-0.115
8.962	0.06075		-0.135
8.964	0.04725		-0.105
8.966	0.0495		-0.11
8.968	0.054		-0.12
8.97	0.05625		-0.125
8.972	0.05625		-0.125
8.974	0.05625		-0.125
8.976	0.054		-0.12
8.978	0.05625		-0.125
8.98	0.0495		-0.11
8.982	0.04275		-0.095
8.984	0.0405		-0.09
8.986	0.04275		-0.095
8.988	0.04725		-0.105
8.99	0.0495		-0.11
8.992	0.045		-0.1
8.994	0.054		-0.12
8.996	0.0585		-0.13
8.998	0.05625		-0.125
9	0.04725		-0.105
9.002	0.04725		-0.105
9.004	0.04275		-0.095
9.006	0.04725		-0.105
9.008	0.0495		-0.11
9.01	0.045		-0.1
9.012	0.0585		-0.13
9.014	0.06075		-0.135
9.016	0.05625		-0.125
9.018	0.0495		-0.11
9.02	0.0495		-0.11
9.022	0.04275		-0.095
9.024	0.0405		-0.09
9.026	0.036		-0.08
9.028	0.03825		-0.085
9.03	0.04275		-0.095
9.032	0.054		-0.12
9.034	0.054		-0.12
9.036	0.0585		-0.13
9.038	0.05175		-0.115
9.04	0.054		-0.12
9.042	0.045		-0.1
9.044	0.0405		-0.09
9.046	0.04275		-0.095
9.048	0.0495		-0.11
9.05	0.054		-0.12
9.052	0.054		-0.12
9.054	0.054		-0.12
9.056	0.054		-0.12
9.058	0.0495		-0.11
9.06	0.0495		-0.11
9.062	0.045		-0.1
9.064	0.045		-0.1
9.066	0.0495		-0.11
9.068	0.054		-0.12
9.07	0.05625		-0.125
9.072	0.054		-0.12
9.074	0.0585		-0.13
9.076	0.06075		-0.135
9.078	0.05625		-0.125
9.08	0.05175		-0.115
9.082	0.04725		-0.105
9.084	0.04275		-0.095
9.086	0.05625		-0.125
9.088	0.0585		-0.13
9.09	0.06075		-0.135
9.092	0.06075		-0.135
9.094	0.06525		-0.145
9.096	0.05625		-0.125
9.098	0.05175		-0.115
9.1	0.0585		-0.13
9.102	0.05175		-0.115
9.104	0.05175		-0.115
9.106	0.0495		-0.11
9.108	0.05625		-0.125
9.11	0.05625		-0.125
9.112	0.06075		-0.135
9.114	0.0585		-0.13
9.116	0.05625		-0.125
9.118	0.05625		-0.125
9.12	0.0585		-0.13
9.122	0.05625		-0.125
9.124	0.054		-0.12
9.126	0.063		-0.14
9.128	0.063		-0.14
9.13	0.063		-0.14
9.132	0.06525		-0.145
9.134	0.072		-0.16
9.136	0.063		-0.14
9.138	0.0585		-0.13
9.14	0.054		-0.12
9.142	0.05175		-0.115
9.144	0.0495		-0.11
9.146	0.0585		-0.13
9.148	0.063		-0.14
9.15	0.063		-0.14
9.152	0.0675		-0.15
9.154	0.06975		-0.155
9.156	0.06075		-0.135
9.158	0.05625		-0.125
9.16	0.0495		-0.11
9.162	0.045		-0.1
9.164	0.045		-0.1
9.166	0.0585		-0.13
9.168	0.05625		-0.125
9.17	0.063		-0.14
9.172	0.0675		-0.15
9.174	0.0675		-0.15
9.176	0.0585		-0.13
9.178	0.054		-0.12
9.18	0.0585		-0.13
9.182	0.04725		-0.105
9.184	0.05625		-0.125
9.186	0.063		-0.14
9.188	0.06525		-0.145
9.19	0.06075		-0.135
9.192	0.063		-0.14
9.194	0.072		-0.16
9.196	0.05625		-0.125
9.198	0.0585		-0.13
9.2	0.063		-0.14
9.202	0.06075		-0.135
9.204	0.063		-0.14
9.206	0.0675		-0.15
9.208	0.06075		-0.135
9.21	0.06525		-0.145
9.212	0.0675		-0.15
9.214	0.0675		-0.15
9.216	0.0585		-0.13
9.218	0.054		-0.12
9.22	0.0495		-0.11
9.222	0.045		-0.1
9.224	0.0495		-0.11
9.226	0.04725		-0.105
9.228	0.0495		-0.11
9.23	0.04725		-0.105
9.232	0.05175		-0.115
9.234	0.0495		-0.11
9.236	0.054		-0.12
9.238	0.045		-0.1
9.24	0.0495		-0.11
9.242	0.03825		-0.085
9.244	0.04725		-0.105
9.246	0.045		-0.1
9.248	0.045		-0.1
9.25	0.04275		-0.095
9.252	0.03825		-0.085
9.254	0.03825		-0.085
9.256	0.036		-0.08
9.258	0.027		-0.06
9.26	0.027		-0.06
9.262	0.02025		-0.045
9.264	0.027		-0.06
9.266	0.0315		-0.07
9.268	0.027		-0.06
9.27	0.0315		-0.07
9.272	0.0315		-0.07
9.274	0.02925		-0.065
9.276	0.03375		-0.075
9.278	0.03825		-0.085
9.28	0.0315		-0.07
9.282	0.0405		-0.09
9.284	0.045		-0.1
9.286	0.045		-0.1
9.288	0.05175		-0.115
9.29	0.05625		-0.125
9.292	0.063		-0.14
9.294	0.0585		-0.13
9.296	0.05625		-0.125
9.298	0.05625		-0.125
9.3	0.06075		-0.135
9.302	0.05625		-0.125
9.304	0.063		-0.14
9.306	0.0585		-0.13
9.308	0.0585		-0.13
9.31	0.06525		-0.145
9.312	0.0675		-0.15
9.314	0.06075		-0.135
9.316	0.063		-0.14
9.318	0.063		-0.14
9.32	0.05175		-0.115
9.322	0.0585		-0.13
9.324	0.06525		-0.145
9.326	0.0675		-0.15
9.328	0.06525		-0.145
9.33	0.072		-0.16
9.332	0.07425		-0.165
9.334	0.06525		-0.145
9.336	0.06075		-0.135
9.338	0.0585		-0.13
9.34	0.0585		-0.13
9.342	0.063		-0.14
9.344	0.063		-0.14
9.346	0.0675		-0.15
9.348	0.07425		-0.165
9.35	0.072		-0.16
9.352	0.08325		-0.185
9.354	0.0675		-0.15
9.356	0.06075		-0.135
9.358	0.0585		-0.13
9.36	0.06525		-0.145
9.362	0.06075		-0.135
9.364	0.06075		-0.135
9.366	0.072		-0.16
9.368	0.072		-0.16
9.37	0.0765		-0.17
9.372	0.08325		-0.185
9.374	0.0765		-0.17
9.376	0.07875		-0.175
9.378	0.07425		-0.165
9.38	0.0765		-0.17
9.382	0.07425		-0.165
9.384	0.081		-0.18
9.386	0.08775		-0.195
9.388	0.0945		-0.21
9.39	0.0855		-0.19
9.392	0.07425		-0.165
9.394	0.0495		-0.11
9.396	0.0225		-0.05
9.398	0		0
9.4	-0.02475		0.055
9.402	-0.05625		0.125
9.404	-0.08325		0.185
9.406	-0.126		0.28
9.408	-0.16875		0.375
9.41	-0.22275		0.495
9.412	-0.26325		0.585
9.414	-0.261		0.58
9.416	-0.24975		0.555
9.418	-0.2205		0.49
9.42	-0.1935		0.43
9.422	-0.14625		0.325
9.424	-0.10575		0.235
9.426	-0.04725		0.105
9.428	0.0045		-0.01
9.43	0.054		-0.12
9.432	0.108		-0.24
9.434	0.12375		-0.275
9.436	0.117		-0.26
9.438	0.099		-0.22
9.44	0.08775		-0.195
9.442	0.08325		-0.185
9.444	0.0675		-0.15
9.446	0.06075		-0.135
9.448	0.072		-0.16
9.45	0.06525		-0.145
9.452	0.063		-0.14
9.454	0.05625		-0.125
9.456	0.05175		-0.115
9.458	0.05175		-0.115
9.46	0.0495		-0.11
9.462	0.0495		-0.11
9.464	0.06075		-0.135
9.466	0.0585		-0.13
9.468	0.063		-0.14
9.47	0.06525		-0.145
9.472	0.0675		-0.15
9.474	0.054		-0.12
9.476	0.054		-0.12
9.478	0.05175		-0.115
9.48	0.04725		-0.105
9.482	0.0405		-0.09
9.484	0.05175		-0.115
9.486	0.05625		-0.125
9.488	0.05625		-0.125
9.49	0.0585		-0.13
9.492	0.05625		-0.125
9.494	0.054		-0.12
9.496	0.04275		-0.095
9.498	0.045		-0.1
9.5	0.045		-0.1
9.502	0.045		-0.1
9.504	0.0495		-0.11
9.506	0.054		-0.12
9.508	0.054		-0.12
9.51	0.05625		-0.125
9.512	0.045		-0.1
9.514	0.0495		-0.11
9.516	0.0405		-0.09
9.518	0.036		-0.08
9.52	0.036		-0.08
9.522	0.03375		-0.075
9.524	0.036		-0.08
9.526	0.03825		-0.085
9.528	0.045		-0.1
9.53	0.04275		-0.095
9.532	0.045		-0.1
9.534	0.03375		-0.075
9.536	0.03375		-0.075
9.538	0.0315		-0.07
9.54	0.02925		-0.065
9.542	0.02925		-0.065
9.544	0.036		-0.08
9.546	0.0405		-0.09
9.548	0.04275		-0.095
9.55	0.04275		-0.095
9.552	0.03375		-0.075
9.554	0.0315		-0.07
9.556	0.027		-0.06
9.558	0.018		-0.04
9.56	0.01575		-0.035
9.562	0.02025		-0.045
9.564	0.02925		-0.065
9.566	0.02925		-0.065
9.568	0.02475		-0.055
9.57	0.0225		-0.05
9.572	0.02025		-0.045
9.574	0.018		-0.04
9.576	0.01125		-0.025
9.578	-0.00225		0.005
9.58	-0.00225		0.005
9.582	-0.00675		0.015
9.584	-0.00225		0.005
9.586	0.0045		-0.01
9.588	0.0045		-0.01
9.59	0.009		-0.02
9.592	0.00225		-0.005
9.594	-0.00225		0.005
9.596	-0.0135		0.03
9.598	-0.01125		0.025
9.6	-0.018		0.04
9.602	-0.02925		0.065
9.604	-0.027		0.06
9.606	-0.02475		0.055
9.608	-0.02475		0.055
9.61	-0.02025		0.045
9.612	-0.027		0.06
9.614	-0.0315		0.07
9.616	-0.03375		0.075
9.618	-0.04275		0.095
9.62	-0.054		0.12
9.622	-0.05175		0.115
9.624	-0.05625		0.125
9.626	-0.054		0.12
9.628	-0.054		0.12
9.63	-0.05175		0.115
9.632	-0.0495		0.11
9.634	-0.05625		0.125
9.636	-0.0675		0.15
9.638	-0.063		0.14
9.64	-0.06525		0.145
9.642	-0.06525		0.145
9.644	-0.0585		0.13
9.646	-0.0495		0.11
9.648	-0.04275		0.095
9.65	-0.04275		0.095
9.652	-0.04275		0.095
9.654	-0.054		0.12
9.656	-0.054		0.12
9.658	-0.05625		0.125
9.66	-0.05625		0.125
9.662	-0.04725		0.105
9.664	-0.04275		0.095
9.666	-0.0315		0.07
9.668	-0.027		0.06
9.67	-0.02025		0.045
9.672	-0.018		0.04
9.674	-0.018		0.04
9.676	-0.018		0.04
9.678	-0.00675		0.015
9.68	-0.009		0.02
9.682	-0.00675		0.015
9.684	0.01125		-0.025
9.686	0.02475		-0.055
9.688	0.02025		-0.045
9.69	0.0225		-0.05
9.692	0.02925		-0.065
9.694	0.02925		-0.065
9.696	0.02025		-0.045
9.698	0.02475		-0.055
9.7	0.02475		-0.055
9.702	0.0315		-0.07
9.704	0.03825		-0.085
9.706	0.04725		-0.105
9.708	0.0495		-0.11
9.71	0.0495		-0.11
9.712	0.05175		-0.115
9.714	0.0495		-0.11
9.716	0.04725		-0.105
9.718	0.0495		-0.11
9.72	0.04725		-0.105
9.722	0.045		-0.1
9.724	0.04275		-0.095
9.726	0.0585		-0.13
9.728	0.06075		-0.135
9.73	0.063		-0.14
9.732	0.05175		-0.115
9.734	0.05625		-0.125
9.736	0.05625		-0.125
9.738	0.04275		-0.095
9.74	0.045		-0.1
9.742	0.05625		-0.125
9.744	0.063		-0.14
9.746	0.06075		-0.135
9.748	0.063		-0.14
9.75	0.06525		-0.145
9.752	0.05625		-0.125
9.754	0.05175		-0.115
9.756	0.0495		-0.11
9.758	0.054		-0.12
9.76	0.0495		-0.11
9.762	0.05625		-0.125
9.764	0.05625		-0.125
9.766	0.05625		-0.125
9.768	0.05625		-0.125
9.77	0.06075		-0.135
9.772	0.05175		-0.115
9.774	0.054		-0.12
9.776	0.0495		-0.11
9.778	0.045		-0.1
9.78	0.03825		-0.085
9.782	0.04725		-0.105
9.784	0.0495		-0.11
9.786	0.05625		-0.125
9.788	0.05625		-0.125
9.79	0.05625		-0.125
9.792	0.054		-0.12
9.794	0.04275		-0.095
9.796	0.04275		-0.095
9.798	0.0405		-0.09
9.8	0.045		-0.1
9.802	0.04725		-0.105
9.804	0.05175		-0.115
9.806	0.05175		-0.115
9.808	0.05625		-0.125
9.81	0.0585		-0.13
9.812	0.04725		-0.105
9.814	0.045		-0.1
9.816	0.036		-0.08
9.818	0.0405		-0.09
9.82	0.03375		-0.075
9.822	0.045		-0.1
9.824	0.05625		-0.125
9.826	0.054		-0.12
9.828	0.05625		-0.125
9.83	0.0585		-0.13
9.832	0.0405		-0.09
9.834	0.04275		-0.095
9.836	0.036		-0.08
9.838	0.0315		-0.07
9.84	0.036		-0.08
9.842	0.0405		-0.09
9.844	0.0495		-0.11
9.846	0.05175		-0.115
9.848	0.054		-0.12
9.85	0.0495		-0.11
9.852	0.045		-0.1
9.854	0.045		-0.1
9.856	0.0405		-0.09
9.858	0.036		-0.08
9.86	0.04275		-0.095
9.862	0.04725		-0.105
9.864	0.04725		-0.105
9.866	0.05625		-0.125
9.868	0.05175		-0.115
9.87	0.0495		-0.11
9.872	0.04725		-0.105
9.874	0.045		-0.1
9.876	0.0405		-0.09
9.878	0.04275		-0.095
9.88	0.045		-0.1
9.882	0.05175		-0.115
9.884	0.0495		-0.11
9.886	0.04725		-0.105
9.888	0.036		-0.08
9.89	0.03375		-0.075
9.892	0.02475		-0.055
9.894	0.02025		-0.045
9.896	0.01125		-0.025
9.898	0		0
9.9	0		0
9.902	0.00225		-0.005
9.904	0.01125		-0.025
9.906	0.0045		-0.01
9.908	0.00675		-0.015
9.91	0.01125		-0.025
9.912	-0.00225		0.005
9.914	-0.00675		0.015
9.916	-0.009		0.02
9.918	-0.01575		0.035
9.92	-0.01575		0.035
9.922	-0.00675		0.015
9.924	-0.00225		0.005
9.926	0.0045		-0.01
9.928	0.0045		-0.01
9.93	-0.00675		0.015
9.932	-0.0135		0.03
9.934	-0.01575		0.035
9.936	-0.01575		0.035
9.938	-0.018		0.04
9.94	-0.009		0.02
9.942	-0.0045		0.01
9.944	-0.00225		0.005
9.946	-0.00225		0.005
9.948	-0.0045		0.01
9.95	-0.0045		0.01
9.952	-0.01125		0.025
9.954	-0.0135		0.03
9.956	-0.02025		0.045
9.958	-0.02475		0.055
9.96	-0.0225		0.05
9.962	-0.0135		0.03
9.964	-0.0045		0.01
9.966	-0.0045		0.01
9.968	-0.00225		0.005
9.97	-0.00225		0.005
9.972	-0.01125		0.025
9.974	-0.018		0.04
9.976	-0.0225		0.05
9.978	-0.01575		0.035
9.98	-0.01125		0.025
9.982	-0.009		0.02
9.984	-0.0045		0.01
9.986	-0.00675		0.015
9.988	-0.00675		0.015
9.99	-0.00675		0.015
9.992	-0.0135		0.03
9.994	-0.009		0.02
9.996	-0.01575		0.035
9.998	-0.018		0.04
10	-0.01125		0.025
10.002	-0.009		0.02
10.004	-0.009		0.02
10.006	0		0
10.008	-0.00225		0.005
10.01	-0.00225		0.005
10.012	-0.0135		0.03
10.014	-0.0135		0.03
10.016	-0.0135		0.03
10.018	-0.01575		0.035
10.02	-0.00675		0.015
10.022	0.0045		-0.01
10.024	0.00675		-0.015
10.026	0.00225		-0.005
10.028	0.00225		-0.005
10.03	-0.0045		0.01
10.032	-0.00675		0.015
10.034	-0.01575		0.035
10.036	-0.01575		0.035
10.038	-0.018		0.04
10.04	-0.01125		0.025
10.042	-0.00675		0.015
10.044	-0.0045		0.01
10.046	-0.0045		0.01
10.048	-0.009		0.02
10.05	-0.0135		0.03
10.052	-0.018		0.04
10.054	-0.02025		0.045
10.056	-0.02475		0.055
10.058	-0.0225		0.05
10.06	-0.02025		0.045
10.062	-0.0135		0.03
10.064	-0.009		0.02
10.066	-0.01125		0.025
10.068	-0.018		0.04
10.07	-0.0225		0.05
10.072	-0.03375		0.075
10.074	-0.0405		0.09
10.076	-0.045		0.1
10.078	-0.04275		0.095
10.08	-0.036		0.08
10.082	-0.03375		0.075
10.084	-0.02025		0.045
10.086	-0.018		0.04
10.088	-0.018		0.04
10.09	-0.02475		0.055
10.092	-0.0315		0.07
10.094	-0.0315		0.07
10.096	-0.036		0.08
10.098	-0.03375		0.075
10.1	-0.0225		0.05
10.102	-0.01125		0.025
10.104	-0.0045		0.01
10.106	0.00225		-0.005
10.108	0		0
10.11	-0.00225		0.005
10.112	0		0
10.114	-0.00225		0.005
10.116	-0.0045		0.01
10.118	-0.0045		0.01
10.12	0.009		-0.02
10.122	0.0135		-0.03
10.124	0.018		-0.04
10.126	0.0225		-0.05
10.128	0.0225		-0.05
10.13	0.018		-0.04
10.132	0.0225		-0.05
10.134	0.01575		-0.035
10.136	0.01575		-0.035
10.138	0.018		-0.04
10.14	0.02025		-0.045
10.142	0.0225		-0.05
10.144	0.027		-0.06
10.146	0.03375		-0.075
10.148	0.03375		-0.075
10.15	0.03375		-0.075
10.152	0.02925		-0.065
10.154	0.027		-0.06
10.156	0.0225		-0.05
10.158	0.027		-0.06
10.16	0.02925		-0.065
10.162	0.03825		-0.085
10.164	0.03825		-0.085
10.166	0.04275		-0.095
10.168	0.0405		-0.09
10.17	0.0315		-0.07
10.172	0.03375		-0.075
10.174	0.03375		-0.075
10.176	0.0315		-0.07
10.178	0.027		-0.06
10.18	0.0315		-0.07
10.182	0.03375		-0.075
10.184	0.0405		-0.09
10.186	0.045		-0.1
10.188	0.03825		-0.085
10.19	0.036		-0.08
10.192	0.03825		-0.085
10.194	0.03375		-0.075
10.196	0.03375		-0.075
10.198	0.04275		-0.095
10.2	0.054		-0.12
10.202	0.05625		-0.125
10.204	0.06525		-0.145
10.206	0.0765		-0.17
10.208	0.06975		-0.155
10.21	0.06525		-0.145
10.212	0.05175		-0.115
10.214	0.0315		-0.07
10.216	0.00225		-0.005
10.218	-0.027		0.06
10.22	-0.036		0.08
10.222	-0.06075		0.135
10.224	-0.09675		0.215
10.226	-0.12825		0.285
10.228	-0.1845		0.41
10.23	-0.2475		0.55
10.232	-0.2925		0.65
10.234	-0.30825		0.685
10.236	-0.30375		0.675
10.238	-0.27675		0.615
10.24	-0.24075		0.535
10.242	-0.198		0.44
10.244	-0.1485		0.33
10.246	-0.1035		0.23
10.248	-0.04725		0.105
10.25	0.0045		-0.01
10.252	0.0585		-0.13
10.254	0.09225		-0.205
10.256	0.10125		-0.225
10.258	0.0945		-0.21
10.26	0.08775		-0.195
10.262	0.0855		-0.19
10.264	0.07425		-0.165
10.266	0.0675		-0.15
10.268	0.054		-0.12
10.27	0.04275		-0.095
10.272	0.036		-0.08
10.274	0.036		-0.08
10.276	0.03375		-0.075
10.278	0.03375		-0.075
10.28	0.04725		-0.105
10.282	0.0495		-0.11
10.284	0.05175		-0.115
10.286	0.054		-0.12
10.288	0.045		-0.1
10.29	0.03825		-0.085
10.292	0.03825		-0.085
10.294	0.036		-0.08
10.296	0.03825		-0.085
10.298	0.045		-0.1
10.3	0.04725		-0.105
10.302	0.05175		-0.115
10.304	0.05175		-0.115
10.306	0.05175		-0.115
10.308	0.04725		-0.105
10.31	0.045		-0.1
10.312	0.04275		-0.095
10.314	0.03825		-0.085
10.316	0.03375		-0.075
10.318	0.03825		-0.085
10.32	0.045		-0.1
10.322	0.0405		-0.09
10.324	0.04725		-0.105
10.326	0.045		-0.1
10.328	0.0405		-0.09
10.33	0.03375		-0.075
10.332	0.02925		-0.065
10.334	0.027		-0.06
10.336	0.02925		-0.065
10.338	0.03375		-0.075
10.34	0.0405		-0.09
10.342	0.04275		-0.095
10.344	0.04275		-0.095
10.346	0.04275		-0.095
10.348	0.036		-0.08
10.35	0.03375		-0.075
10.352	0.03375		-0.075
10.354	0.02475		-0.055
10.356	0.02475		-0.055
10.358	0.02925		-0.065
10.36	0.03375		-0.075
10.362	0.036		-0.08
10.364	0.03825		-0.085
10.366	0.03825		-0.085
10.368	0.02475		-0.055
10.37	0.018		-0.04
10.372	0.0225		-0.05
10.374	0.02475		-0.055
10.376	0.0225		-0.05
10.378	0.02475		-0.055
10.38	0.02925		-0.065
10.382	0.02925		-0.065
10.384	0.027		-0.06
10.386	0.027		-0.06
10.388	0.01575		-0.035
10.39	0.01125		-0.025
10.392	0.0135		-0.03
10.394	0.01575		-0.035
10.396	0.018		-0.04
10.398	0.01575		-0.035
10.4	0.01125		-0.025
10.402	0.01575		-0.035
10.404	0.018		-0.04
10.406	0.0135		-0.03
10.408	0.01125		-0.025
10.41	0.00225		-0.005
10.412	-0.00225		0.005
10.414	-0.01125		0.025
10.416	-0.0135		0.03
10.418	-0.0045		0.01
10.42	-0.0045		0.01
10.422	-0.0045		0.01
10.424	-0.00675		0.015
10.426	-0.009		0.02
10.428	-0.02025		0.045
10.43	-0.027		0.06
10.432	-0.02925		0.065
10.434	-0.036		0.08
10.436	-0.036		0.08
10.438	-0.036		0.08
10.44	-0.027		0.06
10.442	-0.0315		0.07
10.444	-0.036		0.08
10.446	-0.03825		0.085
10.448	-0.0405		0.09
10.45	-0.0495		0.11
10.452	-0.054		0.12
10.454	-0.054		0.12
10.456	-0.054		0.12
10.458	-0.05175		0.115
10.46	-0.0495		0.11
10.462	-0.04725		0.105
10.464	-0.03825		0.085
10.466	-0.03825		0.085
10.468	-0.0405		0.09
10.47	-0.04275		0.095
10.472	-0.0495		0.11
10.474	-0.045		0.1
10.476	-0.045		0.1
10.478	-0.03375		0.075
10.48	-0.02475		0.055
10.482	-0.01575		0.035
10.484	-0.0135		0.03
10.486	-0.0135		0.03
10.488	-0.01125		0.025
10.49	-0.0135		0.03
10.492	-0.018		0.04
10.494	-0.01125		0.025
10.496	-0.00675		0.015
10.498	0.009		-0.02
10.5	0.01125		-0.025
10.502	0.0225		-0.05
10.504	0.02925		-0.065
10.506	0.02925		-0.065
10.508	0.0225		-0.05
10.51	0.018		-0.04
10.512	0.018		-0.04
10.514	0.02025		-0.045
10.516	0.02925		-0.065
10.518	0.0405		-0.09
10.52	0.054		-0.12
10.522	0.0495		-0.11
10.524	0.0585		-0.13
10.526	0.06075		-0.135
10.528	0.063		-0.14
10.53	0.063		-0.14
10.532	0.0585		-0.13
10.534	0.0495		-0.11
10.536	0.05625		-0.125
10.538	0.063		-0.14
10.54	0.0675		-0.15
10.542	0.0675		-0.15
10.544	0.07425		-0.165
10.546	0.0675		-0.15
10.548	0.06525		-0.145
10.55	0.06525		-0.145
10.552	0.06075		-0.135
10.554	0.05625		-0.125
10.556	0.063		-0.14
10.558	0.06975		-0.155
10.56	0.072		-0.16
10.562	0.0765		-0.17
10.564	0.072		-0.16
10.566	0.07425		-0.165
10.568	0.06975		-0.155
10.57	0.06525		-0.145
10.572	0.0675		-0.15
10.574	0.054		-0.12
10.576	0.06075		-0.135
10.578	0.0585		-0.13
10.58	0.06525		-0.145
10.582	0.072		-0.16
10.584	0.0765		-0.17
10.586	0.06975		-0.155
10.588	0.06525		-0.145
10.59	0.06075		-0.135
10.592	0.0585		-0.13
10.594	0.05175		-0.115
10.596	0.06075		-0.135
10.598	0.0675		-0.15
10.6	0.06975		-0.155
10.602	0.072		-0.16
10.604	0.07425		-0.165
10.606	0.06525		-0.145
10.608	0.05625		-0.125
10.61	0.05175		-0.115
10.612	0.04725		-0.105
10.614	0.045		-0.1
10.616	0.0495		-0.11
10.618	0.05625		-0.125
10.62	0.06075		-0.135
10.622	0.07425		-0.165
10.624	0.07425		-0.165
10.626	0.0675		-0.15
10.628	0.063		-0.14
10.63	0.06525		-0.145
10.632	0.063		-0.14
10.634	0.06075		-0.135
10.636	0.05625		-0.125
10.638	0.06525		-0.145
10.64	0.06975		-0.155
10.642	0.0675		-0.15
10.644	0.0675		-0.15
10.646	0.063		-0.14
10.648	0.0585		-0.13
10.65	0.05625		-0.125
10.652	0.054		-0.12
10.654	0.05175		-0.115
10.656	0.063		-0.14
10.658	0.06075		-0.135
10.66	0.0585		-0.13
10.662	0.06975		-0.155
10.664	0.072		-0.16
10.666	0.06975		-0.155
10.668	0.0675		-0.15
10.67	0.06525		-0.145
10.672	0.063		-0.14
10.674	0.0585		-0.13
10.676	0.06525		-0.145
10.678	0.06525		-0.145
10.68	0.06975		-0.155
10.682	0.072		-0.16
10.684	0.072		-0.16
10.686	0.0675		-0.15
10.688	0.06075		-0.135
10.69	0.0585		-0.13
10.692	0.06075		-0.135
10.694	0.06525		-0.145
10.696	0.072		-0.16
10.698	0.07425		-0.165
10.7	0.072		-0.16
10.702	0.0765		-0.17
10.704	0.0765		-0.17
10.706	0.06975		-0.155
10.708	0.063		-0.14
10.71	0.0585		-0.13
10.712	0.063		-0.14
10.714	0.0675		-0.15
10.716	0.06975		-0.155
10.718	0.072		-0.16
10.72	0.07425		-0.165
10.722	0.081		-0.18
10.724	0.08325		-0.185
10.726	0.07425		-0.165
10.728	0.072		-0.16
10.73	0.06975		-0.155
10.732	0.063		-0.14
10.734	0.06525		-0.145
10.736	0.06975		-0.155
10.738	0.0765		-0.17
10.74	0.07425		-0.165
10.742	0.081		-0.18
10.744	0.072		-0.16
10.746	0.06975		-0.155
10.748	0.063		-0.14
10.75	0.06525		-0.145
10.752	0.06075		-0.135
10.754	0.072		-0.16
10.756	0.0765		-0.17
10.758	0.0855		-0.19
10.76	0.09675		-0.215
10.762	0.0945		-0.21
10.764	0.09		-0.2
10.766	0.0765		-0.17
10.768	0.0675		-0.15
10.77	0.063		-0.14
10.772	0.0675		-0.15
10.774	0.06975		-0.155
10.776	0.06975		-0.155
10.778	0.081		-0.18
10.78	0.08325		-0.185
10.782	0.0855		-0.19
10.784	0.0855		-0.19
10.786	0.07875		-0.175
10.788	0.06975		-0.155
10.79	0.0675		-0.15
10.792	0.06525		-0.145
10.794	0.0675		-0.15
10.796	0.072		-0.16
10.798	0.07425		-0.165
10.8	0.0765		-0.17
10.802	0.072		-0.16
10.804	0.072		-0.16
10.806	0.0675		-0.15
10.808	0.06525		-0.145
10.81	0.06075		-0.135
10.812	0.05625		-0.125
10.814	0.063		-0.14
10.816	0.06525		-0.145
10.818	0.0675		-0.15
10.82	0.072		-0.16
10.822	0.0765		-0.17
10.824	0.0675		-0.15
10.826	0.06075		-0.135
10.828	0.04725		-0.105
10.83	0.045		-0.1
10.832	0.04275		-0.095
10.834	0.0405		-0.09
10.836	0.04725		-0.105
10.838	0.05625		-0.125
10.84	0.05625		-0.125
10.842	0.05625		-0.125
10.844	0.04725		-0.105
10.846	0.0405		-0.09
10.848	0.03825		-0.085
10.85	0.0495		-0.11
10.852	0.045		-0.1
10.854	0.05175		-0.115
10.856	0.054		-0.12
10.858	0.06075		-0.135
10.86	0.06525		-0.145
10.862	0.06975		-0.155
10.864	0.063		-0.14
10.866	0.063		-0.14
10.868	0.06525		-0.145
10.87	0.06975		-0.155
10.872	0.072		-0.16
10.874	0.07875		-0.175
10.876	0.0765		-0.17
10.878	0.081		-0.18
10.88	0.07875		-0.175
10.882	0.07875		-0.175
10.884	0.0765		-0.17
10.886	0.0765		-0.17
10.888	0.0675		-0.15
10.89	0.06975		-0.155
10.892	0.06975		-0.155
10.894	0.072		-0.16
10.896	0.07875		-0.175
10.898	0.081		-0.18
10.9	0.08775		-0.195
10.902	0.08775		-0.195
10.904	0.08325		-0.185
10.906	0.081		-0.18
10.908	0.07875		-0.175
10.91	0.07425		-0.165
10.912	0.081		-0.18
10.914	0.08775		-0.195
10.916	0.09225		-0.205
10.918	0.09		-0.2
10.92	0.08775		-0.195
10.922	0.09225		-0.205
10.924	0.081		-0.18
10.926	0.0765		-0.17
10.928	0.0765		-0.17
10.93	0.07425		-0.165
10.932	0.06975		-0.155
10.934	0.081		-0.18
10.936	0.0855		-0.19
10.938	0.0945		-0.21
10.94	0.0945		-0.21
10.942	0.0945		-0.21
10.944	0.09675		-0.215
10.946	0.08325		-0.185
10.948	0.08325		-0.185
10.95	0.0765		-0.17
10.952	0.072		-0.16
10.954	0.072		-0.16
10.956	0.09		-0.2
10.958	0.10575		-0.235
10.96	0.1035		-0.23
10.962	0.11025		-0.245
10.964	0.108		-0.24
10.966	0.11025		-0.245
10.968	0.10575		-0.235
10.97	0.09225		-0.205
10.972	0.07875		-0.175
10.974	0.072		-0.16
10.976	0.0405		-0.09
10.978	0.0135		-0.03
10.98	-0.00225		0.005
10.982	-0.036		0.08
10.984	-0.08775		0.195
10.986	-0.13725		0.305
10.988	-0.19575		0.435
10.99	-0.23175		0.515
10.992	-0.234		0.52
10.994	-0.22725		0.505
10.996	-0.198		0.44
10.998	-0.17325		0.385
11	-0.1395		0.31
11.002	-0.09675		0.215
11.004	-0.05625		0.125
11.006	-0.01575		0.035
11.008	0.03825		-0.085
11.01	0.081		-0.18
11.012	0.11475		-0.255
11.014	0.135		-0.3
11.016	0.12825		-0.285
11.018	0.12825		-0.285
11.02	0.126		-0.28
11.022	0.11925		-0.265
11.024	0.10125		-0.225
11.026	0.09		-0.2
11.028	0.07425		-0.165
11.03	0.0675		-0.15
11.032	0.06975		-0.155
11.034	0.06975		-0.155
11.036	0.0765		-0.17
11.038	0.08325		-0.185
11.04	0.08775		-0.195
11.042	0.07875		-0.175
11.044	0.06975		-0.155
11.046	0.06975		-0.155
11.048	0.0675		-0.15
11.05	0.06975		-0.155
11.052	0.06975		-0.155
11.054	0.0765		-0.17
11.056	0.0675		-0.15
11.058	0.06525		-0.145
11.06	0.06975		-0.155
11.062	0.06975		-0.155
11.064	0.0675		-0.15
11.066	0.063		-0.14
11.068	0.05625		-0.125
11.07	0.04725		-0.105
11.072	0.0585		-0.13
11.074	0.0675		-0.15
11.076	0.06075		-0.135
11.078	0.0675		-0.15
11.08	0.072		-0.16
11.082	0.0675		-0.15
11.084	0.06525		-0.145
11.086	0.05625		-0.125
11.088	0.05175		-0.115
11.09	0.04725		-0.105
11.092	0.0495		-0.11
11.094	0.0495		-0.11
11.096	0.054		-0.12
11.098	0.06075		-0.135
11.1	0.05625		-0.125
11.102	0.05175		-0.115
11.104	0.04725		-0.105
11.106	0.0495		-0.11
11.108	0.05175		-0.115
11.11	0.0495		-0.11
11.112	0.05175		-0.115
11.114	0.0585		-0.13
11.116	0.054		-0.12
11.118	0.054		-0.12
11.12	0.063		-0.14
11.122	0.063		-0.14
11.124	0.054		-0.12
11.126	0.04725		-0.105
11.128	0.03825		-0.085
11.13	0.03825		-0.085
11.132	0.036		-0.08
11.134	0.03825		-0.085
11.136	0.0405		-0.09
11.138	0.045		-0.1
11.14	0.0405		-0.09
11.142	0.04275		-0.095
11.144	0.036		-0.08
11.146	0.02925		-0.065
11.148	0.027		-0.06
11.15	0.01575		-0.035
11.152	0.02025		-0.045
11.154	0.027		-0.06
11.156	0.02475		-0.055
11.158	0.0225		-0.05
11.16	0.0225		-0.05
11.162	0.018		-0.04
11.164	0.0135		-0.03
11.166	0.009		-0.02
11.168	0.0045		-0.01
11.17	-0.00225		0.005
11.172	-0.0045		0.01
11.174	0.009		-0.02
11.176	0.01125		-0.025
11.178	0.00675		-0.015
11.18	0.00225		-0.005
11.182	-0.0045		0.01
11.184	-0.0135		0.03
11.186	-0.02025		0.045
11.188	-0.0225		0.05
11.19	-0.02475		0.055
11.192	-0.027		0.06
11.194	-0.02475		0.055
11.196	-0.02475		0.055
11.198	-0.02475		0.055
11.2	-0.02475		0.055
11.202	-0.0315		0.07
11.204	-0.03825		0.085
11.206	-0.04275		0.095
11.208	-0.045		0.1
11.21	-0.05175		0.115
11.212	-0.0495		0.11
11.214	-0.04275		0.095
11.216	-0.04275		0.095
11.218	-0.03375		0.075
11.22	-0.02925		0.065
11.222	-0.03375		0.075
11.224	-0.054		0.12
11.226	-0.03825		0.085
11.228	-0.04275		0.095
11.23	-0.0495		0.11
11.232	-0.04275		0.095
11.234	-0.03375		0.075
11.236	-0.02475		0.055
11.238	-0.018		0.04
11.24	-0.01575		0.035
11.242	-0.009		0.02
11.244	-0.01575		0.035
11.246	-0.01575		0.035
11.248	-0.01125		0.025
11.25	-0.01575		0.035
11.252	0		0
11.254	0.0135		-0.03
11.256	0.0135		-0.03
11.258	0.01575		-0.035
11.26	0.0225		-0.05
11.262	0.0315		-0.07
11.264	0.0315		-0.07
11.266	0.0315		-0.07
11.268	0.027		-0.06
11.27	0.03375		-0.075
11.272	0.045		-0.1
11.274	0.0495		-0.11
11.276	0.05625		-0.125
11.278	0.06525		-0.145
11.28	0.06975		-0.155
11.282	0.06975		-0.155
11.284	0.06075		-0.135
11.286	0.06075		-0.135
11.288	0.0585		-0.13
11.29	0.05175		-0.115
11.292	0.06525		-0.145
11.294	0.06525		-0.145
11.296	0.06525		-0.145
11.298	0.07425		-0.165
11.3	0.072		-0.16
11.302	0.0675		-0.15
11.304	0.06975		-0.155
11.306	0.063		-0.14
11.308	0.0675		-0.15
11.31	0.0675		-0.15
11.312	0.07875		-0.175
11.314	0.0765		-0.17
11.316	0.0765		-0.17
11.318	0.0765		-0.17
11.32	0.07425		-0.165
11.322	0.07425		-0.165
11.324	0.06975		-0.155
11.326	0.06975		-0.155
11.328	0.06525		-0.145
11.33	0.06525		-0.145
11.332	0.0765		-0.17
11.334	0.072		-0.16
11.336	0.07425		-0.165
11.338	0.07425		-0.165
11.34	0.06975		-0.155
11.342	0.0675		-0.15
11.344	0.0675		-0.15
11.346	0.06075		-0.135
11.348	0.06075		-0.135
11.35	0.06075		-0.135
11.352	0.06975		-0.155
11.354	0.0765		-0.17
11.356	0.0765		-0.17
11.358	0.06975		-0.155
11.36	0.0675		-0.15
11.362	0.0675		-0.15
11.364	0.06525		-0.145
11.366	0.063		-0.14
11.368	0.06075		-0.135
11.37	0.0675		-0.15
11.372	0.06975		-0.155
11.374	0.07425		-0.165
11.376	0.072		-0.16
11.378	0.07425		-0.165
11.38	0.06975		-0.155
11.382	0.0675		-0.15
11.384	0.063		-0.14
11.386	0.0585		-0.13
11.388	0.054		-0.12
11.39	0.06075		-0.135
11.392	0.0675		-0.15
11.394	0.06975		-0.155
11.396	0.072		-0.16
11.398	0.072		-0.16
11.4	0.06525		-0.145
11.402	0.06525		-0.145
11.404	0.06075		-0.135
11.406	0.06075		-0.135
11.408	0.054		-0.12
11.41	0.06075		-0.135
11.412	0.06525		-0.145
11.414	0.063		-0.14
11.416	0.06525		-0.145
11.418	0.072		-0.16
11.42	0.0675		-0.15
11.422	0.06525		-0.145
11.424	0.06075		-0.135
11.426	0.06075		-0.135
11.428	0.05625		-0.125
11.43	0.063		-0.14
11.432	0.06975		-0.155
11.434	0.0675		-0.15
11.436	0.06975		-0.155
11.438	0.07425		-0.165
11.44	0.0675		-0.15
11.442	0.0675		-0.15
11.444	0.063		-0.14
11.446	0.063		-0.14
11.448	0.06075		-0.135
11.45	0.063		-0.14
11.452	0.06975		-0.155
11.454	0.07425		-0.165
11.456	0.072		-0.16
11.458	0.081		-0.18
11.46	0.0765		-0.17
11.462	0.072		-0.16
11.464	0.07425		-0.165
11.466	0.0585		-0.13
11.468	0.063		-0.14
11.47	0.06525		-0.145
11.472	0.06975		-0.155
11.474	0.06975		-0.155
11.476	0.07425		-0.165
11.478	0.0765		-0.17
11.48	0.06975		-0.155
11.482	0.06525		-0.145
11.484	0.0585		-0.13
11.486	0.0585		-0.13
11.488	0.05625		-0.125
11.49	0.06525		-0.145
11.492	0.06525		-0.145
11.494	0.063		-0.14
11.496	0.06975		-0.155
11.498	0.072		-0.16
11.5	0.06975		-0.155
11.502	0.06975		-0.155
11.504	0.06975		-0.155
11.506	0.06075		-0.135
11.508	0.0585		-0.13
11.51	0.06525		-0.145
11.512	0.072		-0.16
11.514	0.07425		-0.165
11.516	0.08325		-0.185
11.518	0.08325		-0.185
11.52	0.06975		-0.155
11.522	0.06975		-0.155
11.524	0.0675		-0.15
11.526	0.06075		-0.135
11.528	0.06075		-0.135
11.53	0.06075		-0.135
11.532	0.06075		-0.135
11.534	0.063		-0.14
11.536	0.06975		-0.155
11.538	0.0675		-0.15
11.54	0.063		-0.14
11.542	0.05625		-0.125
11.544	0.054		-0.12
11.546	0.054		-0.12
11.548	0.05625		-0.125
11.55	0.06525		-0.145
11.552	0.06075		-0.135
11.554	0.0675		-0.15
11.556	0.063		-0.14
11.558	0.06975		-0.155
11.56	0.0585		-0.13
11.562	0.05625		-0.125
11.564	0.0495		-0.11
11.566	0.04275		-0.095
11.568	0.03825		-0.085
11.57	0.045		-0.1
11.572	0.045		-0.1
11.574	0.04725		-0.105
11.576	0.045		-0.1
11.578	0.04725		-0.105
11.58	0.04275		-0.095
11.582	0.036		-0.08
11.584	0.0315		-0.07
11.586	0.0315		-0.07
11.588	0.036		-0.08
11.59	0.0405		-0.09
11.592	0.05175		-0.115
11.594	0.06075		-0.135
11.596	0.06525		-0.145
11.598	0.06975		-0.155
11.6	0.06075		-0.135
11.602	0.0585		-0.13
11.604	0.0675		-0.15
11.606	0.063		-0.14
11.608	0.0675		-0.15
11.61	0.06975		-0.155
11.612	0.07425		-0.165
11.614	0.0765		-0.17
11.616	0.07875		-0.175
11.618	0.07875		-0.175
11.62	0.06975		-0.155
11.622	0.0675		-0.15
11.624	0.06525		-0.145
11.626	0.06975		-0.155
11.628	0.06525		-0.145
11.63	0.07425		-0.165
11.632	0.081		-0.18
11.634	0.0765		-0.17
11.636	0.081		-0.18
11.638	0.07875		-0.175
11.64	0.072		-0.16
11.642	0.072		-0.16
11.644	0.072		-0.16
11.646	0.06975		-0.155
11.648	0.0675		-0.15
11.65	0.072		-0.16
11.652	0.072		-0.16
11.654	0.063		-0.14
11.656	0.0585		-0.13
11.658	0.0495		-0.11
11.66	0.03825		-0.085
11.662	0.03375		-0.075
11.664	0.02925		-0.065
11.666	0.02475		-0.055
11.668	0.027		-0.06
11.67	0.02925		-0.065
11.672	0.02925		-0.065
11.674	0.0315		-0.07
11.676	0.0315		-0.07
11.678	0.0225		-0.05
11.68	0.018		-0.04
11.682	0.0135		-0.03
11.684	0.01125		-0.025
11.686	0.01125		-0.025
